0.16724064224791765,1.0,0.37043296928821606,0.41466425827908365,-0.1250589122592052,-0.28851315821235207,-0.34783394911776466,-0.2877169507664849,-0.3258938996281052,-0.1821839369794181,-0.2154080061727828,-0.1870394116741408,-0.176929079215414,-0.22331352539170568,0.10313546103400124,-0.15900064127568636,-0.30866910611871107,0.0015426828910356477,0.11706883202901384,0.2542898884370729,0.4137352745183248,-0.05249503551878583,-0.3157926307489378,-0.02987749442631189,0.15438640805325837,-0.23938972852596027,-0.20548941492525483,-0.34699779820468507,-0.08453549934561215,0.07248730755317577,-0.3230389346389459,-0.1706528701101037,-0.13682549578229944,-0.31170144650871506,-0.18950338173531703,-0.21570077783126768,-0.18460766595644543,-0.06797800756749724,-0.1509279164819403,-0.20343181885537867,-0.08510870192236106,-0.3003771990988275,-0.2959966275962838,-0.35968514011274605,-0.14188106434025555,-0.07496729686188373,0.19371636471894743,-0.008689257997827233,-0.3029049677827503,-0.02962667014802891,0.15043161168577404,0.04538470238521875,0.3010238364024645,0.168573961723204,0.18073119918914424,0.2634339490607526,-0.17261232555369152,0.0011032731056967136,-0.08646020977869742,-0.08391139086334626,-0.0683340875722411,-0.2791761022140059,0.154908327418417,-0.26699025133153087,-0.20344447699717977,0.042233802948988486,-0.08608206412532547,0.13636167123981038,0.10802657353725013,-0.08224912829622177,-0.1137217262176141,-0.29459093824662036,-0.24706655973648267,-0.1164706001940306,0.06083677427695325,0.21050483657694485,0.149406057554962,0.1142953096016522,-0.016595956550050354,-0.09009897377883523,0.011796826555589971,0.10600944391141547,0.4228455223729525,0.3038714175498503,0.4011771099226521,0.4090994008056638,0.31268643748795305,0.2020403897725252,0.3815316456881176,0.20461215671850252,0.34471165281501814,0.18792578057196813,-0.23931146174693085,0.22843052207004105,0.02688164032397448,-0.06554495283212225,-0.1337964829284624,-0.36255506793610726,0.1738384577609453,0.03494902043929147,-0.17771203720066864,0.18075004618431945,-0.07667099650746147,0.6587376774376277,-0.14560200089551195,-0.11172981250157211,-0.2159385532980176,-0.3712670485040988,-0.20841295277035973,-0.3225208942718195,-0.26349429704606614,-0.10696642396223104,-0.06992225920999919,-0.19844612661029207,-0.18683307771761848,-0.08988156431266289,0.19138508445229185,-0.1250218475607498,-0.16792004057147245,0.0874940703189521,-0.05874470502788961,0.17840338371710412,0.44960480350735377,0.14665939331659475,0.02152498287926067,-0.46096631432695,-0.2342306728147061,-0.2687997278536368,-0.316724694292342,-0.2045617391669172,0.021541477259787556,-0.23592894928965433,-0.1899885408273461,-0.13020593371964811,-0.13762867913327295,-0.08656132794345123,0.017555501155555563,0.12491178277051024,-0.16323996448401112,0.13458885579993243,-0.13148472443365303,-0.2657651625381105,-0.16136322235446604,-0.010648403434116927,-0.32732939620717594,-0.48641150455040094,-0.284810827462903,-0.3653344862267249,-0.1911920785052716,-0.17178159256480405,-0.24903936882481187,-0.23026713498099124,-0.22608434089424473,-0.22523777166843492,-0.4108364087978429,-0.0801744505843011,0.1723651884835322,0.09289149531393932,0.18648126854922767,-0.26151109412047785,0.2302285785714318,0.2920401747158422,0.14577278980691943,0.023315955755725617,0.02128840520983715,-0.032705738523701566,-0.07779572533673625,-0.03927525219783456,-0.15006506174541795,0.10433429665690908,0.3908076519067364,0.1719946005384623,0.12506962765112073,0.0347013940140854,-0.1027809661548325,-0.09550202536289634,-0.0634694767126246,-0.25938086009720784,0.14946657139854808,0.10108087418091236,-0.4357271467523377,-0.14182511695284888,-0.007853687861922736,0.01829703551473232,-0.030418290630002343,0.031651449074149726,-0.08610074531685585,0.08008532325346014,0.060947524101793285,0.2770831855154317,0.3179790690756982,0.3364921838942857,-0.10028788573879788,0.1144540040020132,-0.3691108630383137,-0.21222208261673084,-0.15704761690489685,0.15891411113693896,-0.1798434107416646,0.37043296928821606,1.0,0.5430892964419861,-0.19185039302134616,0.2104588153598345,-0.07809106055726325,0.14831143257402227,0.13658435293705784,0.4629485173162742,0.26547326132154225,0.41191208729948525,-0.11947309642781384,-0.10447220790173645,0.06185704830784085,-0.05563978760400538,-0.0981083279179252,0.07343355833757403,0.00982038291825018,0.14460875511225313,0.11873783508943414,0.1340927387148657,-0.08416106000222028,0.08121581087057947,0.12987783434486252,0.1478474623149615,-0.1887819701710403,-0.26381895757528034,-0.17180343917906776,-0.4183654350009116,-0.20894201889727776,-0.3665047559663517,-0.3816845446303959,-0.19333967512609368,-0.062047095557178696,-0.18376827408741436,-0.2990970999401406,0.022050982734569863,-0.2912880603056474,0.11200850668107092,0.069970129394327,-0.02640734393371518,0.07052705710168981,-0.1063843192478714,0.03616072657285924,0.007960956903217756,-0.02635755063087636,0.13646081425917833,-0.18946299488025556,0.11120637666826144,-0.049953768198329855,-0.1352712683986258,-0.11182254840030521,0.07307647646517852,-0.12601691494013012,0.19136573348691183,-0.23344861217401977,-0.03822269943244506,-0.20651298401047727,-0.23294918330326217,-0.03421254258369375,0.03855098428250936,-0.062269050433711136,-0.19474612431673288,-0.22426867976084344,-0.037930312959442936,0.003534378595237187,0.054349134025382585,0.20291687988793125,-0.009189958001412774,0.10511532438887496,-0.12513400073332537,-0.220417247849595,0.06726846586144977,0.044619864414315744,0.2069855551606589,0.1241176544340734,0.245757973384648,0.04532299922319413,-0.05531532061435803,0.008378680106525456,0.12486312214531034,-0.0986561941337031,0.015373325470253772,0.11155942122575478,0.06156670232442639,0.07574530949890196,0.0727724833241332,0.0750779868258372,0.0729703091174831,0.11189685343003648,0.019150284063334026,0.021555840599210223,-0.02753209899948559,0.015146426361161518,-0.238386747274901,0.038979493314076734,-0.11869247103235196,-0.08544266781029118,-0.17999932119684794,0.012224684064824104,-0.22909237977984373,0.47388944166518054,0.3206826182045577,-0.20829509657934328,0.4643286796509588,0.09277531073794473,0.09604256826233235,0.4347110923297142,0.09066620600068433,0.20658894292757624,0.01177035587166758,-0.20981362699374895,-0.185653823384516,-0.08185691030703816,-0.1164855357545647,0.0007414407680666851,-0.08789179037054835,-0.1969569277590943,0.07227463768806784,-0.038537243580842775,0.012999710794036027,0.1369208353417454,0.21286909819441527,-0.01785438380594236,-0.19039332466845216,-0.016499438737463096,-0.1580678891008155,-0.09498792261459404,-0.19350749869554368,-0.31679150492984703,-0.3242236453819946,-0.47062828246084903,-0.3600652203620364,-0.44048860055202627,-0.3810525139814263,-0.22890128721162328,-0.22327762354469705,-0.158507378881669,0.026066285961664198,-0.394063005441124,-0.10382405019968116,-0.27790202336119724,-0.01818127370259973,0.010972205307868141,-0.24897201461768104,-0.11024991396233488,0.07807461874677443,-0.0040035757735230335,-0.10185208975534003,-0.2936378504702484,-0.246438598940216,-0.016899805536983427,-0.1000709275158612,-0.20710633662401257,-0.008515866915865646,0.08277346867250626,0.11154196810620735,0.13173890074437866,-0.08238740429833591,-0.06713160656530513,-0.04773852812762957,-0.08988854812178601,-0.1840965343260862,-0.18646419248210255,-0.3742551577081773,-0.24822313577165855,-0.3430790325317015,-0.2430014777408188,-0.11211349539738295,0.09546976197037041,-0.23632657393736453,-0.10042122514847372,-0.2132136759721788,-0.14663030098127136,-0.28291447729263297,-0.1075010774886787,-0.07691494782227097,0.09887837127792945,0.18028811386750937,-0.2107698933232184,-0.21611957572700724,0.010505929433691169,-0.034018875351040125,0.10767455381312284,0.07793878190380144,0.13139350347143927,0.15515702835179285,0.12850212044796117,0.1515676398510437,0.0672789542895374,0.15345850971670683,-0.18131490285666785,-0.07816456960900103,-0.101366453964762,-0.12676501537368215,-0.10739970846310132,0.012273008696876796,-0.1570080750467821,0.5430892964419861,1.0,0.029695067984702728,0.26900747057175556,0.057427369826852544,0.0972295227643021,0.10183209853546248,0.3636408557924756,0.18287581429452007,0.37121607838245263,-0.13221430989013072,-0.28922286287425003,0.004970657585545632,-0.060839381605769086,-0.30646596352406014,-0.10029389964161271,0.10546744091556126,-0.01869310891298501,0.1317105786881382,0.03856388141193556,-0.11887496729489708,0.00022162690041886408,0.2215698947906576,0.04134021105881679,-0.32173681015533845,-0.26943389733470263,-0.009382797046928877,-0.18987457733830773,-0.1211713631575184,-0.4689666787688794,-0.44386396765576736,-0.3296213779585997,-0.2132323726028436,-0.30992219008281174,-0.4413728022676167,-0.1997771847369904,-0.32298638356315706,0.024115823754508183,0.07638953156583367,-0.10218564524768003,0.03008257222116716,0.05936943565293618,0.24333494090398655,-0.018956675986395184,0.19166950472478808,0.17217349328817602,-0.01264595877836969,0.2659434779682452,0.039627701617154086,-0.18664010072620232,0.005964153179258534,0.29157768805375045,-0.07754562862253107,0.23268720903453097,-0.28599941679715085,-0.13816642620473218,-0.33608742189828417,-0.332860965624641,-0.1536808454355099,-0.08521094229646119,-0.04641158488562826,-0.2836700711057556,-0.33147697010339566,-0.026548673978664575,-0.06805011623762294,0.03885706194120015,0.027764626384848,-0.22344156899922332,-0.15378140183981304,-0.1957241107543629,-0.33026804819509226,0.04583395609855289,0.03224177502093388,0.18678188820931407,0.11166804390771652,0.26238469406485626,-0.02351447278927519,0.09607219993158785,0.025753325415553478,0.26410063453723615,0.014829355649462578,0.10795039488333724,0.18796703393549377,0.08750227910749137,0.07149603307196306,0.1475964527896625,0.1153750305853932,0.11680349631263429,0.19311014229703655,0.3232460368786045,-0.005050979309169604,0.04579579473871862,0.0022798589041510306,-0.16621846497054388,0.11215890593489736,-0.006516861187010611,0.1160503430457632,-0.07334563502274247,0.08445593398045959,-0.0910259719163302,0.35053832744357605,0.5641985824310073,-0.17707125951998523,0.4626482193742924,0.16431998207531975,-0.034213175908645525,0.3309418544573537,0.01905578225330751,0.1594934828298079,0.05206047266023531,-0.33288942403918054,-0.2906924379848756,-0.08913200867257123,-0.2671193504481288,-0.15238463972558136,-0.18282602619439448,-0.3182367109322251,-0.12159558690573671,0.015595496511815595,0.10900496927073548,0.07477546812954641,0.27240384969857007,-0.062125563959818886,-0.2041959756414015,-0.07368150552465545,-0.15709047203721793,-0.18129711088441977,-0.33883240666604125,-0.205630215906438,0.005376143296766375,-0.3855033596198044,-0.3994121864446384,-0.44018697931903455,-0.502534326160085,-0.288589037539028,-0.28310696382453254,-0.32203659258539896,-0.06827895253345738,-0.436355806178885,-0.06139492582261323,-0.12037497247595548,0.15831543960960115,-0.028078784258607697,-0.2731808003592272,0.04441180380456618,0.10658609686045756,0.06767083314664528,0.01635286456322422,-0.0051755306330550695,-0.3335395040759894,0.01211382661355121,0.05138857268553456,-0.17851391302019357,0.2336875148506696,0.047597043463529366,0.2759547503607771,0.1110025425770374,-0.14235869818366395,0.13495567304846062,0.1471780274528423,0.003843665941924136,-0.10926311096334825,-0.24766674161882823,-0.37329097629365526,-0.36956896743542966,-0.2780631880300282,-0.12303726370469252,-0.008795663366756676,0.19982212501766947,-0.21173927184115107,-0.06299020441820692,-0.13709418159121187,-0.18678918743557235,-0.30430404523014987,-0.07924644632644498,-0.22292117798720465,0.06168051576420125,0.15611182442074065,-0.195625847885899,-0.36051505591758937,-0.05420197527632004,0.05634575734115054,0.06432681966378445,0.09160838034579022,0.2858900501470652,0.3846298447641149,0.18112677500117097,0.21658903642325184,0.17905399308611666,0.18094998479441604,0.050671420764125695,0.07711165878896058,-0.05488907479397146,-0.033231380719178326,0.11182174489599336,0.20485366934875687,0.1109099356358558,0.029695067984702728,1.0,0.573725142481707,0.523929372888136,0.03405255612386026,0.13058867403606153,-0.09496396423653784,0.12775991281791563,0.13489482504689496,-0.1993231586404532,0.07966328595737303,0.010965894397013882,0.13865251849308663,0.09368143783392285,0.033861344472513155,0.11171156977804636,-0.18535073500614604,-0.14330640957779545,-0.395577042523436,-0.1790850372065995,-0.2690566683309481,-0.112809929329375,-0.3844863025869253,-0.1709761101500226,0.1712155207850134,0.41807388770311177,0.46630919952720495,0.4691069936888757,0.32026986142363534,0.4653015551953157,0.08784146202441849,-0.09971524659553581,0.1504587811852616,0.3030511926289255,0.1151422588540988,0.3090392234892588,-0.21502061276978793,-0.14725312795080492,-0.2735371603082897,-0.07642754692212536,0.3717096190903284,0.07359880335314345,0.059049786067585194,-0.1472051391144671,-0.02203229145341705,0.13636153431059247,-0.01899497337279712,-0.1827333363733494,0.049655776891555155,-0.22952109028948445,-0.037420780516254366,-0.13518148219747225,0.11089163338669673,0.17344917358093223,-0.15277059087009873,0.04228188678771872,0.10685584629632176,0.16972042991849004,-0.21581189680475257,-0.05356315015143557,0.13815213811980165,0.21096715722649156,0.2095491786457269,-0.2366892426508349,-0.28231277889130046,-0.2770842649951897,-0.3878741394557759,-0.2788529134202021,0.38874560682109216,0.404128787779754,-0.10883326063272726,-0.2192968861300824,-0.1428778898109817,-0.25771437349838017,-0.25367111459472563,-0.026477014109749605,-0.1091975589163521,-0.11060797522238536,-0.13297425049892883,-0.31129298432711394,-0.25930531059364614,-0.1629270932219662,-0.28935633119493614,-0.20595754440010924,-0.15848715803163307,-0.19022198518875136,-0.2720517565801356,-0.10476508320925938,0.060413840922851736,-0.20981088506595352,-0.08858215848886508,-0.14161242199474394,0.5226365141860965,0.1406524884763053,0.41028435025359405,-0.2319279508898264,0.1855228565532564,0.3142815900732822,0.41063541605372816,-0.10743250061594763,0.0998594006860892,0.6857493956161668,0.3200386722091108,0.1233876575357227,0.04080593051294244,-0.014939132546431212,0.010861813074932477,0.10482571014294888,0.6700911526633537,0.12634080177905926,0.28865707047576494,-0.07953522281665806,0.13576100381911033,-0.023575323232798512,0.20415776016570936,0.11571828221784212,0.023728817964405343,0.20203158526610124,0.0007932547750013289,-0.2302483664438884,-0.28237905346085435,-0.17354314730586243,-0.15296042416741937,-0.24000122365271856,-0.23034674979620287,-0.1095873698176586,-0.16444223465464983,0.25447339513910694,0.35648898522892386,0.6155701940751863,0.5362411087668568,0.344969342687123,0.30439277393298386,0.012321532937012969,0.11823734483925052,0.3386087741754404,0.014617794507397908,0.34542048397399594,-0.08100484671957987,0.2908623148461311,-0.22590052582430825,-0.226676686356912,-0.08947117076748376,0.31642778792813425,0.15434301617927598,0.26745465951640685,0.382902758307869,0.05342727803277519,-0.013880265554903886,0.03636784684770182,-0.07738430763319468,0.06827879763051481,0.22673921285621873,-0.16056206281277868,-0.10157153805111967,-0.24273625012592687,-0.2234980532831316,-0.12078106793614532,-0.11859056895988992,-0.08446104751618033,0.3599009709962029,-0.2071490307021976,0.17196859178369758,0.2798774396614454,0.15881146182818753,0.1426158963820907,0.06999517579243959,-0.25651755605383264,-0.14336804006517637,-0.35707266344314303,-0.1757517800946652,-0.12778683361896004,0.17669221174460753,-0.08976640080780598,-0.30031226148762696,-0.11411560661257622,-0.2039651397640648,0.5585294845402652,0.15066604461312066,-0.16338834287899873,-0.19085973751776403,-0.18162776311229956,-0.21867937364345985,-0.1557812088933236,0.05314942645980068,-0.3621633852818913,-0.2683231487029969,-0.21880399631279657,-0.12500371344157146,0.06867569618125555,0.052984484194564314,0.3524577551696485,0.6087068561410667,-0.03513797175672272,-0.1580179538938923,0.10830449723142153,0.573725142481707,1.0,0.6741162948589525,0.50685402833718,0.4498563691962641,0.511735832346879,0.5389475710531195,0.6780394253366654,-0.026930672661596666,-0.06543974581277343,0.002201190653209908,0.08278959124705952,0.05980578359159821,-0.023083177034761555,-0.08680553039485228,-0.28535867914644075,-0.17820315840665424,-0.0522400528964924,0.023458317849518056,-0.19098451099784733,-0.15002979106338127,0.05026474029650772,-0.34182307078673774,-0.09365650973544049,0.2670290219725396,0.009740576817060488,0.3371148827228808,-0.0886644466942995,-0.06640121624561139,-0.04630388669661055,-0.15521503899824485,-0.050546796276940746,-0.02603581868603788,0.006545172366961927,-0.08017761884020588,0.012445284419216707,0.006047646876403283,0.015098167698254308,0.08619798830885181,0.3884871242383744,0.1926281371347215,-0.039201364842325455,-0.19562425711919376,0.04649149452924304,0.19011129891719664,0.1727549684241279,-0.08033386753623606,0.01711809921567901,-0.23693459549174423,-0.04810291819313519,-0.19502365920295336,0.025087684846906155,-0.06707865705380882,-0.19052507743443164,-0.21909337315004268,-0.13152294549848986,-0.041984462869589546,0.01421408182249496,-0.19008197814307232,-0.08845097587422718,-0.12720860603607714,0.016398222228649447,-0.10951095547582217,-0.24108445243643048,-0.1715412873492755,-0.2176796193498052,-0.1150003894341302,0.3814749434638997,0.07734961534603561,0.08481658968058693,-0.10837629035669896,-0.08877758950892028,-0.13757529237055804,-0.041485310366401275,-0.08843994634650902,0.04183598855151131,-0.17218492811145703,-0.0027904147052804527,-0.4776374919701897,-0.25015255433807915,-0.2885973506573756,-0.33649111621172034,-0.27687500557686023,-0.1879983114022032,-0.3519633182087485,-0.2492010916759037,-0.260927940624041,-0.04002851649762463,0.11932076619338436,-0.1972449178845533,-0.056481101416288246,0.150448874461687,0.30382178536018684,0.37135994853660126,-0.34048552357732303,-0.07333843802579884,0.5364855469318721,-0.0228381663000085,0.495505433672664,0.09052651866922169,0.2751938285290584,0.8083578006719924,0.5434923211664703,0.4820176465142224,0.5409746951099683,0.25903108656730645,0.5040039031670599,0.642042676386593,-0.1144151195103662,0.010416255196230626,0.030792142487865253,-0.02294401036555715,-0.07857258054183906,0.002620043139370769,-0.11573472804480459,-0.07512412674684106,0.10988637788577035,-0.132506339049693,-0.2675138905319053,-0.10209048228991494,-0.16937315541124576,0.04535007812407717,0.1473786978701658,-0.07472515235537398,-0.03483531673477496,-0.3387747759131939,-0.11947067030214688,0.14598656030383955,0.06319334893093095,0.04834158430123738,-0.08887956743826912,-0.1753090062108709,-0.3066577800941027,-0.2052078700985888,0.039928992731602,-0.0693629713856538,-0.04948533751496959,0.04600003469428598,0.20491245038044792,-0.10590145919167808,0.1665655101439824,0.18324339591983693,0.35234225636008365,0.36377606583399485,0.3471210752372696,0.21927258436897465,0.255023090656,-0.04898017026129026,0.11942703185842483,0.1364386445044644,0.19025032773466324,0.24912508436809133,-0.17690585817435023,-0.004496240198338592,-0.05998016686790843,-0.10402347729442224,-0.1525341529747852,-0.1457456348009973,0.0006115795056119784,0.24359852159266007,-0.2570382847369954,-0.215965719037295,-0.12236396309875681,-0.14464154058305775,-0.007399943871850453,-0.04131784596146256,-0.31580388988941915,-0.29479091764430515,-0.2749050596046643,-0.228176707281802,-0.13794830272400835,-0.0626003567503317,-0.010103107564083747,-0.11796570054414156,-0.08037032918275146,-0.13217108558330515,0.5131463875672857,-0.11683789036162774,0.028400232597198004,-0.024291788779371,-0.08452708791330325,-0.05356504082004609,0.11064545270589668,0.14669273810179229,-0.15311644721512563,-0.172699702124556,-0.14423515107270268,-0.21674465737363743,0.04777755438311447,-0.0538811438805365,0.4563292700126001,0.45310087202751975,0.0320660696540854,-0.19435353163035465,0.17727324257645227,0.6741162948589525,1.0,0.4592633982428031,0.3527372367371473,0.3350498514455639,0.44486848444333016,0.3893498316614757,-0.19921165477618588,0.057958063530759336,-0.11125716807469332,-0.009616363496934328,0.07137010591359344,-0.11243519803703927,-0.09602899479136556,-0.36348772143516334,-0.21141863855452817,-0.10785803663895754,0.023804577639120875,-0.1356000883151871,-0.020025981495035945,-0.10830390489314463,-0.13136187494942797,0.04118717411603821,0.48668654031592895,0.11928655897088233,0.2529359282234791,0.08234475324321598,0.07192173427435562,0.09639874179321872,-0.055396878434401275,0.08052884500259933,0.05811996259537555,0.004435495770952653,-0.01218989967490607,0.00871783555701353,0.16498584953130813,0.0029997872991912255,0.16384497339991155,0.31629939734942886,0.1220509892949148,-0.15793530694715213,-0.33534240141264743,-0.12052949071629408,0.19873268318422968,0.026063566539888724,0.1118965629425372,0.1095648676992294,-0.04824219281181109,0.08392162702772651,-0.014451377676289212,0.017585896186949473,0.09096340341795936,-0.19144838041448883,0.03384596922206667,0.062395676867882256,0.04481162634552664,0.10583283128555913,-0.2635141918647857,0.1440882946932487,0.07781479853046973,0.2126585093541096,-0.27583712466875254,-0.38893042031954034,-0.3040293263331778,-0.1742939292255044,-0.25523190137117374,0.42722311657745066,0.17240653693073268,0.04182798278080303,-0.2654670566419379,-0.3228374035098656,-0.2015082338130791,-0.20380052174801289,-0.15244499466653827,-0.00715374569897322,-0.2391683718973077,-0.2835441946509492,-0.42221983422881554,-0.39137885923521426,-0.3914848086294065,-0.5859073545484503,-0.4631089487589703,-0.3622320773847221,-0.517911740139707,-0.31932861885695313,-0.469351948033502,-0.19991324107102776,0.10492900192553976,-0.16480397363129165,-0.1851030937402214,0.20588152654686429,0.2771353028303761,0.4874425385790449,-0.3601587050866398,0.04323079288981138,0.6566696238129136,0.11392146122119017,0.31991277993640654,-0.0578169752577674,0.2731760840267292,0.4955874179570487,0.6285032909225715,0.3876258264451768,0.3905809743879073,0.34108436900720673,0.3897954988267403,0.5057741083990169,-0.02894969600087838,0.1745454224172671,0.056007069187257966,0.11257242863471562,-0.15095063329645508,0.0750790829511323,0.014997266330061291,-0.15784898416763185,0.06278281755300226,-0.16483766361287688,-0.3204018006500038,0.007828073293914118,0.00534052486192198,0.10516787539234924,-0.013544338117121432,-0.0058568965284312635,0.13095326534255425,-0.054829766790923405,0.15507945422333996,0.3160346096630027,0.291598118258738,0.22683811904740167,0.2257866202333783,0.01815711336559012,-0.09857096159062036,-0.09921149315230643,0.13307913726910106,-0.043570376503578485,0.1926531858190957,0.17022886027600104,0.23982465653963717,-0.06249200293327236,0.0794144243607488,0.22810776132177457,0.4232058825097549,0.29134483232828073,0.24652023952215577,0.2553294748804255,0.2382423082963052,0.14501647273336343,0.07307314424735467,-0.04366761886203586,0.3012632339112178,0.2575056607861097,-0.0239772892933457,0.05783526408159768,-0.1594597490191755,-0.11966421337771,0.13852240318412487,0.04788562768283493,0.17009570426061893,0.3137901713504058,-0.20445684254183877,0.04140638607246958,0.03004670326316899,0.15809924921566615,0.18401950741370568,0.1416060217559483,-0.3211531114860375,-0.08315618744322362,-0.3403037394016536,-0.19850324522165616,-0.12128473385609397,0.10994296882973342,0.06383870221847288,-0.1380938121818118,-0.11204942689168285,-0.2989092717126503,0.6055802183647964,-0.04239693976182088,-0.08763862083979021,-0.21831733177464968,-0.18862158205041796,-0.17024979945081664,-0.09922218037015901,0.056114775053858826,-0.3772969103793947,-0.37292193381452265,-0.22033268423147687,-0.4309036500613545,0.09934315709601321,-0.1237509212607928,0.5268218036939841,0.7262602891060579,-0.09453171565667945,-0.2582893578940993,0.2169064731455596,0.4592633982428031,1.0,0.5101936757351515,0.6335234888292997,0.5158491126088172,0.4079396905595872,0.19438521041805332,-0.17287675927969293,-0.07608330433589362,-0.10520633597397323,-0.010049994817168218,-0.01846858093277963,-0.06579003292965714,-0.08164141284345156,-0.14142016646435124,0.1830022414502524,0.17360523407809791,-0.12267858571062643,-0.16172392621558507,0.2547424384228288,-0.23448504041634533,-0.20273799280998644,0.1977914783127133,-0.06206834573811794,0.003191470242658285,-0.23328791027626355,-0.26396935862992504,-0.09898070520649213,-0.05392194615799748,-0.09852960495080608,-0.1852527008636712,0.034141742378796615,-0.19778499996625587,0.1416995596906311,0.1987387299022196,0.1955498387899216,0.1274663257014275,0.1827754055720729,0.2215214192827653,-0.004158965162922569,-0.2927277300431363,-0.07664862803102845,0.2560028637067569,0.1559960962576642,0.19691441487092728,0.03669432066136188,0.155505312372977,0.08988756292464192,0.06785138977693121,-0.14610196219233973,0.04113628453740005,-0.2692843343479764,-0.23923626504764323,-0.2446487199945183,-0.1583525478196232,0.007285489348016035,-0.3577881444267744,-0.009670768588038904,-0.13952576806986855,-0.03005006703584267,0.04508177879489326,-0.3185353496836132,-0.256675475508174,-0.04739028765520664,-0.23897986725330464,0.1004505400778518,-0.1626221000500195,0.1565462186467171,-0.19298723163016607,-0.3304059510120156,-0.1474889339192226,-0.06859608256949956,-0.2724720927335274,0.0690487111623141,-0.30562933422732746,-0.08052975390008403,-0.2842882372478102,-0.22451073563420085,-0.43440308949953943,-0.271035163924964,-0.31381504309541264,-0.2716318216905397,-0.4252806626818935,-0.07954959434748021,-0.26440286417123526,-0.004545694645293525,0.22444198780779484,-0.25334042778873017,-0.05038219734806765,-0.15166054458117648,0.19140364469133211,0.22551456354862448,-0.24275321667996047,-0.30315394432326515,0.7322220864247931,-0.23650601358459905,0.6381214301729374,-0.0887939055048627,-0.1775343613636246,0.49894276980904856,0.6921941176818296,0.5432299419828271,0.5587899586367602,0.40114189772243536,0.386784363848551,0.21665332674158297,-0.061778882843564205,-0.16881201044360172,0.22974239346675965,-0.024219342079618768,0.1841843004457674,-0.19673142793132564,-0.11116565814802098,0.06583878199401125,-0.0370426327233407,-0.053675402652007376,0.1259951469795174,0.12033120840075988,0.04739613182818533,0.2673457639010905,0.42507156091151055,0.08224882378975355,0.09361650929010126,-0.1725045271509104,0.011453454664303404,0.006872910929401581,-0.17467319346755864,-0.1349330914098774,-0.0990075464826556,-0.19770023717443483,-0.12497055893004444,-0.1211617470272246,-0.12322104441551844,0.20417924884302796,-0.06280469163882416,0.22190366729108993,0.1399018380436696,0.08784969192845293,0.5068858376223668,0.4383653552800369,0.3027019915320356,0.33768890501437787,0.15053141026136857,-0.038992290940380224,0.36410184296173953,0.10574150516373458,0.08992118246514665,0.25443530371768247,0.35590568883099416,0.15124496958504804,-0.09498661726409123,0.12476613556626588,0.0585675327692808,0.030860136935274386,0.07005673857790302,0.041948281044172475,0.3102685956951747,0.28051474541737875,-0.16430631397027984,-0.15879493073417905,-0.20683644860355352,-0.018135423438647696,0.04924751667278103,0.1355519217961794,-0.35155467844724125,-0.010225880216436709,-0.08647662283512397,-0.12224705529114573,-0.06813119671642999,-0.09328274231860623,-0.007015959490094022,-0.08871762243418156,0.07064951242539563,-0.24072228198560727,0.1530357317216957,-0.21101194792625927,0.14947435356308494,0.026329746532801734,-0.21164439586986367,-0.10396005398759968,0.14954002657742238,0.19615840745559687,-0.07485239875040124,-0.05539252563125544,-0.0032532840854064497,-0.27694038682946476,0.1023161217013852,-0.13255736315328676,0.23067967526573,0.2103275425513762,0.10247867921201352,-0.22285146347013,0.17012476523248907,0.5101936757351515,1.0,0.5698085174945403,0.5898471844464633,0.48289309048157697,0.048565501091360014,-0.1284065435521468,-0.04625849589299773,0.036098511337677885,-0.06966690426298847,-0.06392218177389468,-0.25534147891680103,-0.08443250731673908,-0.349405648844816,0.12845807445808255,0.09845028595354029,-0.11265215887598572,-0.274461381850422,0.17018054873518104,-0.015288855990119728,0.126809772388633,0.1759545008655254,-0.1657098427117946,0.13997441758977525,-0.17550443397743007,-0.2753545734280256,-0.12960366156089276,-0.10186860272691033,-0.19919688279522127,-0.1546749232806792,-0.14695055120682735,-0.14662808882185355,0.016085979291707155,0.07268769963110407,0.15365180156689587,0.13390590156475654,0.3263646045314507,0.1508407584541528,-0.10481349383904225,-0.25542541828379806,-0.06514127211546586,0.22392001837270264,-0.01888039380279735,0.09179767172636048,0.13460114600932463,0.007163976650069771,0.15532093948892717,0.010554978657300824,-0.0826710305655627,-0.05409014940903162,-0.10347432160178092,-0.2639419579163085,-0.06452628122309652,-0.1332696848562894,-0.020859516196994395,-0.10081415060762199,-0.018202325189372395,-0.10891822799485953,-0.27697256550347177,0.23651062385856808,-0.10150783937178164,-0.11861125307174368,-0.04908469660992277,-0.04984202291285839,0.2869638470613205,-0.09784335483997046,0.21685913298166484,0.04673201667944465,-0.05568438811529972,0.0310115277503747,0.18778399243089527,-0.025344323098170987,0.12309956810439882,-0.08680560639665498,0.049840283609445514,-0.1886005645626404,-0.020635970857646468,-0.31646399103496337,-0.1871193135742651,-0.05466426139879196,-0.012021200944281763,-0.17589322560681223,-0.02091353772942561,-0.1458206462825981,0.1508783416609105,0.2614549625782201,-0.0961967460573473,0.06419939702782076,-0.0038966703229286383,0.3086895458962343,0.4709371243157348,-0.11505162875954776,-0.08897443071110102,0.39283195758985134,-0.377506486501923,0.3367689908506635,-0.12515254767783557,-0.12391666210415216,0.43366788004835777,0.3059400918756106,0.7415306764864378,0.49117678869453174,0.5383532747682364,0.5347932824885909,0.20625198702491307,-0.25180218428160206,-0.028686481324910664,0.006325899193410076,-0.18216439077948093,-0.09116650075673009,-0.11076830238360937,-0.25619567687350164,-0.22955630761354853,-0.1580542290632677,-0.2262250464153056,-0.11956349563666425,-0.0127676023257114,-0.14219209785261164,0.18346584914800512,0.3313735189277668,0.04002708015443848,0.08079369011244142,0.024553151478777943,-0.2910445781992982,-0.02246217357220537,-0.08818676608605097,-0.13929848011665627,-0.19144109891793712,-0.2527611072984152,-0.2181326124054348,-0.3106045567541128,-0.12423935642741096,-0.13374559897087643,-0.24674516365816523,-0.043360418829016645,0.08467178693463968,-0.31393224874373127,0.45540715984119184,0.38428771391345495,0.1529387112385986,0.36588798058282246,0.17241240156768797,-0.14614980046977433,0.1941026460056384,-0.15963743243143427,0.011200568538713467,0.2763560263964371,0.2370470806230983,0.05900113997761268,-0.12256308829508526,0.15399608975586185,-0.005029614640625076,0.0969173902634311,0.04145534348205247,-0.11270622037653062,0.19026611311612693,0.2350255149837398,-0.04624526164991945,-0.2065559617623101,-0.1900143828615576,-0.1686960723447438,0.06662779699220861,0.04767509997560755,-0.2617586633060696,-0.23864375398467097,0.0014531724745538072,-0.07171653077721388,-0.24487854643814863,-0.07584027648130388,-0.012968962891689619,0.03634024458029488,0.10877817898321215,0.018289909747472955,0.32937122176343886,-0.10153604380604699,0.16302031708971634,0.23903526238860848,-0.0755351888756523,0.1121692447373742,0.19204567225560484,-0.006062362572100137,0.07578882350945666,0.04258908786960241,0.10076295334412548,-0.12905693668577214,0.18296648404211535,0.05877768476021739,0.43569609218049177,0.178192530875249,0.31037626281164793,-0.08862260442619047,0.13411835924697482,0.5698085174945403,1.0,0.7202622855683615,0.7394067097750182,0.029356292153418017,-0.19299932726898208,-0.174865508976723,-0.22264666090488117,-0.0646446433704134,-0.08438707310983293,-0.21868058958091663,-0.030084449606894666,-0.2169503199038812,0.23556711795406943,0.18447853657270005,0.09524590808618813,0.009460730966695094,0.33222921522844684,-0.1107006748021494,-0.14834143326894517,0.05381584284399392,-0.4486765937200384,-0.045793888514489706,-0.378000118500899,-0.4866604246179528,-0.06445671788959678,-0.13222929416891857,-0.2543298644314058,-0.42340383457842046,0.033995710519933046,-0.3549758306156739,0.2901986039245595,0.23595880756881993,0.19354796486642048,0.27615891026401734,0.11029175020222629,0.31076070462867567,0.02170112084454325,-0.15253849207834855,0.09804351058561779,0.17196877135420982,0.26768434447655737,0.09625030981589952,-0.12657917969216229,0.06555904651237814,0.25701823913573063,0.03206997168063746,-0.09890220806348765,-0.13134338754545996,-0.10300152365517552,-0.26161434421786733,-0.2981632364669037,-0.1297829770719454,0.1372837890706571,-0.2390769967865957,-0.15883025370437123,-0.25859707471673193,-0.13708253918018104,0.056469018041569626,-0.16094197704565769,-0.05040304703983468,-0.04333979428047104,-0.07634498013280681,0.20087171115552255,-0.19654075417121009,0.23533518636639,-0.008412933018281523,-0.0756857575726517,0.09446603867978676,0.2411167408784348,-0.052471833792036474,0.04193556233837746,-0.2264645210332578,0.05251484518794467,-0.1672494103037255,-0.10938784219762726,-0.2844237330136809,-0.22923733475072,-0.1810725993205307,-0.1374314899180542,-0.290709712346404,-0.07602120586908144,-0.14854891888681762,0.07522798837681055,0.22137703496717936,-0.14422066385439017,-0.028247239271298855,-0.22751312658327075,0.266155010511473,0.14589473194542732,-0.2556431719474128,-0.3147453942834902,0.45588693325478047,-0.5516907478425911,0.7510753532348211,-0.10804269748997812,-0.3153698782749137,0.6669116922757075,0.6469393741151972,0.5621104011079522,0.905517266788688,0.6340729213166076,0.661500974845719,0.14708311389372086,-0.36310538926602526,-0.22798821230517544,0.09454106277142947,-0.23353953353462048,0.02254407925100469,-0.35711228001342776,-0.27625389954221213,-0.17423826180946528,-0.06100187279940934,-0.211753359511102,0.029318206810668938,0.2036302530774974,-0.011400565919960307,0.2514252150083847,0.3237266542997101,0.16365628536587695,0.22237218045803736,-0.0699458173828466,-0.34105198796345665,-0.18396304300776128,-0.48802282666908975,-0.4477884908012621,-0.45985247081791697,-0.47474749340527334,-0.2542068296704724,-0.37620238590267696,-0.17208813835348524,0.0906474366719395,-0.3963549174623415,0.15124880750650835,-0.04436626909150523,0.09828132035962174,0.40011997862100374,0.26822547312681466,0.23947883154234736,0.3325868346496556,0.1919440616934248,-0.0952429954498804,0.11795803421422052,-0.17896728306553136,0.08003008784557322,0.13480628791606422,0.09801021414480114,0.23304323487226664,-0.03508540731038863,0.09901255708767247,0.10406250214034324,-0.013649124277964374,0.09186639300376992,0.06527236385682288,0.19948971007364957,0.018676590602389884,-0.2022565149529225,-0.4672485396238404,-0.41076808588423264,-0.34922198117242476,-0.1862538939317996,-0.1283891440659368,-0.21427724444689136,-0.2480071252989702,-0.05674092948746565,-0.25320389035004326,-0.21305334786565852,-0.3994502411611784,-0.17134877802479323,-0.04541877315903432,-0.0626664312380545,-0.0042005685577453265,0.12471125638144374,-0.2793720178552223,0.16366522438010875,0.06531296315064479,-0.058799443792672955,0.09653911390445763,0.2647028446744534,0.16087602635368553,0.005062244378751107,0.032162006641634745,0.04025491695651725,-0.1953407543902798,-0.10114169693874064,-0.047798053244341554,0.27070151350972627,0.0666423890576848,0.04768885197269123,-0.1685103505825905,-0.007304903270582322,0.7202622855683615,1.0,0.7392139128320973,-0.00034273330970884734,-0.23767366656602423,-0.22346395371781425,-0.2710442904109229,-0.06836982862356318,-0.09348129036000823,-0.22931324601029648,-0.1471162872662488,-0.2170228168193776,0.11543850425617425,0.1514407469876739,0.0924503688638613,-0.01032290299593976,0.2665031083903261,-0.059457360790022666,-0.026472396025557374,0.19217053328992503,-0.45370469287346993,0.22258737687836205,-0.18672258927875007,-0.3655263193963428,0.04083494701106333,-0.23849872758178284,-0.3264951225792188,-0.17614359525698897,0.05098107608275436,-0.31096301030645324,0.2650795569339473,0.1444799122199051,0.10995641568689708,0.1572478872804472,0.2925923208751827,0.20783019120285945,-0.07856726340835976,-0.1875771906458941,-0.03636787781903437,0.014165381584359874,0.0950813780347321,-0.05837000499636085,-0.151941596715694,0.059053659332168225,0.23827694981149872,-0.02039120397276076,-0.016639726011977565,-0.037099557454006685,0.1947664825844258,-0.22920875221842452,-0.0725401748874655,-0.08204661001194972,0.06198692571645027,-0.23327632724223865,-0.235120017439488,-0.2823655187637692,-0.05658713844411345,0.22629077343920664,-0.1089478688181205,0.015338413996700722,-0.09341742768891727,-0.015568871413357005,0.6154705893016008,-0.04175518664358646,0.47798912586823833,0.1896583057016476,-0.004805656328926712,0.32847407882256474,0.37776328585623487,0.1317882919144655,-0.0099226758655272,-0.13921740753860493,-0.049600381481477274,-0.2513248807972082,-0.007838000293139536,-0.3314789027394248,-0.25074151664925226,-0.10014874114593605,-0.20717925478044968,-0.38551460836955137,-0.2643527900597226,-0.3389583537658006,-0.1196567977444162,0.13174118269172555,-0.2763332064332793,-0.16539886149147767,0.10448646202564343,0.5381233249817768,0.2641322822804176,-0.312432059106638,-0.030812792227347795,0.31282604738918374,-0.5199974363420736,0.4191967905274784,-0.06330348426987803,-0.1239518230399336,0.5822683027848912,0.5357671471910129,0.5918301671122468,0.7072981010201286,0.5533452436631672,0.8618343314217622,0.3293207676643543,-0.4283358147525528,-0.05674634194015939,0.02515380908722271,-0.3063968200610647,-0.029355811507976823,-0.36522319272301257,-0.38231197988299664,-0.17905827252804318,0.07676538488685025,-0.18140247040871996,0.004539532004997036,-0.013054749151107312,-0.06134068796542896,0.1499148524047265,0.30089212104494445,0.1506279329115886,0.13751134377028437,-0.0457117340838308,-0.366066036745732,-0.10477375247169586,-0.28074916282427265,-0.34698014479383726,-0.3783201035123608,-0.3446179529955267,-0.3896568953143515,-0.4722705883793472,0.027628018843959292,0.08065777192201821,-0.3894896075198735,0.07280484027424912,-0.09646967530222476,-0.0904314511978124,0.30139684048786297,0.2652336660706758,0.2014316437183873,0.3000032669739609,0.3829729627488696,-0.08385062583171851,0.09523842991198377,-0.20953256717601065,0.06730072014605078,0.0664811306601084,-0.04306245673676844,0.15609456965172744,-0.08217041760685768,-0.053985287246084285,0.04397904906785876,0.0904136480421083,0.026541064902917775,-0.03348774037567627,0.17177544710857595,0.13451206977379412,0.0035635042223396063,-0.46905621490262545,-0.3127964844669275,-0.47331507582083165,-0.21675328184584383,-0.13910060283714434,-0.1989562154300127,-0.22288180941734853,0.05974824564332988,-0.2818711182736344,-0.2859718471827169,-0.3473533124333933,-0.2774987143928803,0.024582033486348444,-0.2196956689026545,0.13069169084632956,0.4722645801585204,0.03671961462263276,0.29856639992331124,0.14347638778203523,-0.010405488570893087,0.3435416524450938,0.17254353229049724,0.06747312943170146,-0.10275311336249165,0.03171332197432147,0.061474409478657885,-0.28008644719102394,-0.2634414807004931,0.20089728231135567,0.5764542735802648,0.2382803222872124,0.11371225339843014,-0.3057530997862148,0.10125700039705687,0.7392139128320973,1.0,-0.0300778863181208,-0.31536816770746207,-0.23603405648114664,-0.1922543133117774,-0.1841277243075442,-0.22355417644371917,-0.2839229081137517,-0.24530208034361087,-0.12878563639551083,0.15797608773676416,0.06175198450478404,0.10837556849444747,-0.03592844258815775,0.24377969903362937,-0.1704793413823426,-0.09861767104010398,-0.012962508703805935,-0.5219932641348033,0.14100019407067835,-0.3892510933418421,-0.5262360883548373,-0.11261279569977482,-0.3241608229283151,-0.3863441453539516,-0.3646481194476148,-0.08577099412098306,-0.37094709808515947,0.21680279387876764,0.09009846338054579,0.012190126200995324,0.13435565466453747,0.25425837482169644,0.2345548848588657,-0.08115473697438112,-0.03905249456396579,0.1688963636815758,-0.03725240094093245,0.2519934892791479,-0.05393304897597954,-0.1779290721110333,-0.07912965210737678,0.15397338315452555,-0.133146607284245,-0.02081329910912927,-0.2937435170687841,0.09379277443915263,-0.3572930671779081,-0.2545718153032486,-0.11155590252243068,0.1490052379584756,-0.11984352610255417,-0.3911718050404807,-0.417267698140038,-0.14472889916531972,0.08939321847645877,-0.008008824909176301,0.07740317113830962,-0.08239462860885377,0.14405472557108737,0.4632041351567914,-0.11841944689611791,0.3770519485137832,0.22964097928570487,0.20118722782143575,0.27105717779788707,0.3905459470116472,0.15410812061820922,0.11474209766769186,0.011265601585965396,0.18010361945866177,-0.19747040643894795,0.006403430948661149,-0.16923983849879606,-0.15121478555327222,-0.049082876713831006,-0.005165134265752934,-0.19783311402941892,-0.11717869545671498,-0.2067243655431714,0.017970102033781892,0.26576611865691635,-0.11434552217258842,0.024622005370018733,-0.036945317838164175,0.43456096005965816,0.1601445862535773,-0.23237173682004036,-0.025474125890259075,0.21726819851195084,-0.5179182704016189,0.5721873528141006,0.009616008712593145,-0.13831655242524554,0.8062457350590485,0.458379874787002,0.5088304460814601,0.7514683894423688,0.395051552042144,0.7847395495520884,0.32802703426742924,-0.47614231257459566,-0.12740905305326297,-0.13370137526532982,-0.293164079470842,-0.21943547211618464,-0.254485797273406,-0.4652235131493573,-0.27282587124873714,-0.0049393611585137245,-0.2998457024243328,-0.21010324940678116,0.02029946670357732,-0.143453915447962,0.09492929291293056,0.2278701594856481,0.12189026851209268,0.06773271698455917,-0.19860688712171584,-0.5640701550121839,-0.09061464870743657,-0.4150977343389615,-0.4680033187251817,-0.552889511332035,-0.5881428863579868,-0.5268895434050632,-0.5490395843810648,-0.13343993416670408,-0.16400632256472264,-0.5309025368430073,-0.02136805681997392,-0.1632039749785276,0.025427110197137448,0.2785871418059164,0.11670133880041753,0.11498513210819963,0.26688554464603453,0.3676504640404695,-0.09086322230919844,0.14460907805682569,-0.2591613266047545,0.1416175026257791,0.18350382812049504,-0.137764077223619,0.16694952268548446,-0.21234154878047895,0.00873966056461155,0.15925493267129523,0.09471990222759791,-0.07583872572274286,-0.053915828837948175,0.07482772164978478,-0.032000738822953935,-0.07076858862052482,-0.5573993201058924,-0.43847659981077686,-0.57651643347603,-0.1897972935398226,-0.18304321819026947,-0.07771200914913949,-0.4118260511047936,0.06678053766232539,-0.20695670871673127,-0.21592799409530924,-0.38089845649548026,-0.17173036549617834,0.09694456146859827,-0.11035648216945668,0.27747174809965014,0.3767913757440554,-0.059357697627989744,0.2890501358299644,0.26548729545343963,0.21927761568688925,0.36009287156433545,0.3451988545319343,0.2083793075764388,0.1422886528592189,0.1398921803194619,0.151757879499187,-0.07418683584389038,-0.16048485172151328,0.1997351532626533,0.45209161347259935,0.10221270545121508,0.1691509720368891,-0.14715996971267378,0.11076933973797996,-0.0300778863181208,1.0,0.06321361942462163,0.2671436016578866,0.2663457317294183,0.23190173144727175,0.2980739197055547,0.33887317163820385,0.3651550831791888,0.19434982635984943,0.42605084104342617,0.5083524950382878,0.11715944980782088,-0.1899135664682408,0.572216288304026,-0.06986844167509092,-0.1381365451911706,-0.1783903217334991,-0.017524680979262717,0.0740474032162545,-0.16367351756088777,-0.12385641198877888,0.011611658636811344,0.2650935026185348,0.11875757911946896,0.0024841215424389724,0.08075605771823591,-0.0195346276652349,0.2744466701918992,0.022895483626179255,0.35868586739901526,-0.009736681418057768,0.2212760266031764,0.08806026435568665,0.2702632778124275,0.02941646753283435,-0.10610204772840306,0.10037427029802168,0.0246980870435054,0.08270367388295462,-0.11395084774992882,-0.09310724621017251,-0.25986123340542205,-0.12735277234207756,-0.2846917541493661,0.1081645663207342,-0.09338917939535382,-0.0858017244958238,-0.16524018003828403,-0.1744360471329807,-0.0032802947075495814,-0.11837032139436333,0.05074217731774038,-0.16207349111526556,-0.06932348330943364,0.1576809453019895,-0.04596572455874511,-0.10271340614774983,0.07506072010433086,0.007222752240885485,-0.11219229113636704,-0.11594715575595436,0.17497046894627502,-0.012400609332414584,-0.14253536020531524,0.023472254626472268,0.1175888519466086,-0.043944356607938106,0.06594508206581727,-0.12438439515294024,0.111138209549741,-0.09494617265681277,0.03945496051178844,-0.08276344831377508,0.16771325454433175,-0.003377804636351064,0.01112336329532594,-0.06893320838325363,-0.011308520654570267,-0.0510972260437836,-0.1033871684752729,0.1784587718625827,-0.1375419496894083,0.20649142711872892,-0.1221734830856168,0.07821028886926826,-0.09754384033046198,0.030552688025066565,-0.1480021388481,0.07095059026367141,-0.16506503945727055,0.11639901510570266,-0.15141146761056704,-0.15386513951099237,-0.041562918294714826,-0.000392302603665776,0.20458033527633465,-0.06457560307929208,-0.14687931169825572,-0.016436419326602707,-0.12049994755546106,0.1888509246507728,-0.1379366519811696,0.5389238938663644,0.18344878800508296,0.2947457978268436,0.14453650808841903,0.1371712647541804,0.2933029062826891,0.3779208115262784,0.5147793620037809,0.3044453679087877,-0.026357041293234865,-0.10747791020726444,0.33018795994322786,0.6710198419110017,0.3332382689546683,0.03544403236374836,-0.12731082804340854,-0.04169438291527865,-0.1426095497829848,-0.1486690487574355,-0.13260839921325435,-0.18019341826958876,-0.08318306796466987,0.05972147984128623,0.1397923892531672,-0.09874153467153415,0.11826573966530685,-0.00833103021900755,0.26860977878692294,0.13784554348228997,0.20935758769164592,0.5151957764665566,0.38319087119130113,-0.0025239107247793566,0.25439669487250804,0.2793133135124079,-0.08523016152022897,0.31205649992557966,0.04948329195883612,-0.0468682006185158,0.2401780565104008,0.1452358162921666,-0.3460896164808801,-0.33697232489825446,-0.1118980432217507,0.2229419952436656,0.1998532319899843,-0.26541769144763555,-0.2202384446378908,0.0009170190886896627,0.19038319267337311,-0.09727692111180358,-0.2008290839749257,-0.2124567989071769,-0.01379223123871702,-0.1195324961229036,-0.014156979690465005,-0.2397160798344164,0.0593744940486024,0.07057483741444856,0.007157922625439041,0.06728522691953417,-0.09275051893893747,-0.02844304100294272,0.017843042757140153,-0.002420670028444032,-0.23356301133192295,-0.16139411617161545,-0.0007396566197401564,0.36458562595204314,0.09515282631281909,-0.16002000751982873,0.008703193061567905,-0.029748144921444526,-0.10724003151991841,0.11352795234249564,0.06634217471939574,-0.05306610500246316,-0.03782724919175268,0.035910486468524176,-0.14179040036628032,-0.0917594309080122,-0.26205914264825975,0.060357874420681,-0.06738003754422822,0.07315228224518025,0.06321361942462163,1.0,0.46530038614992714,0.5193727394603184,0.7594488503303746,0.42320206230849633,0.1013404708779136,0.08844169523914638,0.03499063843151663,-0.002398945018850921,0.2519258599426393,0.15578318745945782,0.12086202774008052,0.134000128588373,0.32972838944222005,0.4090174363233148,0.18285889672810268,0.26376772703616647,0.04251687506231096,0.48289054845335294,0.5685380942893887,0.5246670190688877,0.8111913410535813,0.7539605893170289,0.4155141225014784,0.2111433128136428,0.3542568271475891,0.21886142653448487,0.14734587372913677,0.3188559811156343,0.38038892265172886,0.043330898721083616,-0.057156417384180966,0.19395076795914587,-0.1380267284196937,-0.1796746949611374,0.10749838261234818,-0.26783558295067356,-0.05043163449751173,-0.07121204191431958,-0.35477573348652525,-0.14325209730143298,-0.1397268358624256,-0.0443462203670788,0.4545007773406996,-0.08862319046717505,0.5980095118135617,0.3130881215331288,0.23413244289692345,0.26824162567600984,0.05698554890908112,0.6470887227340925,0.6170919002282806,0.2575153274870294,-0.16068102224775152,-0.1242888795047035,-0.07090893340069393,0.124013802135376,-0.17475820035686265,-0.11142993037863556,0.26602204532257445,-0.255341811890303,-0.3233525536096196,-0.32891789337020444,-0.3585483922055062,-0.29148608595371694,-0.2156946694425614,-0.14857393276236905,-0.1226069861271644,-0.3335884029695226,-0.2693720087847402,-0.4195893556241964,-0.03540668577347036,-0.28211701271310646,-0.3367742215647065,-0.2890795071550852,-0.26253052195770316,-0.3244116481494335,-0.15290979195989648,-0.2897318499820066,-0.07821120882072681,-0.06218779192561122,0.08462496224687276,0.11959998731499032,-0.0629429837227513,0.12337788998557767,-0.07603809472399434,-0.056892213077747576,-0.021789368681168396,0.341248623781639,-0.06828118131919751,-0.2176697214921625,0.17726234686800227,-0.22943630072229204,-0.07785656496481244,-0.153964230424379,-0.13958244519116267,-0.002508151892977799,-0.26467232137351804,-0.08978709106808828,0.585298032979213,0.3495236896414422,0.12520510705079307,0.4485074246497631,0.10226299616448756,0.42346368002999624,0.6677263375573684,0.07792040731211057,0.03911947846763793,0.08398639866584733,-0.2214867115506436,0.07627483057254685,0.12264782448499344,0.10538909509783344,-0.14970274812687914,0.10795119877698892,0.2604590990413078,0.3088947991939487,0.3748988244776311,-0.033671581796197385,0.35409143872309046,0.442475327564036,0.45154447014372656,0.436745497257492,0.5218583112965931,0.4080687094617995,0.17472297173099627,0.05640619248630492,0.43195496885154866,0.20874675787710367,0.16897817549477087,0.017814877734969092,-0.1210171556068933,0.04110153183900436,0.07923243014381166,-0.049521357773715365,-0.11813358909303606,0.22845164295498815,-0.2071693241729206,0.1599695614150647,-0.22081269837751383,-0.34284974020839315,0.16779382531016585,-0.21730647560986172,0.09561559097261228,-0.12717541585828773,-0.18317830065532664,-0.03057887842567041,-0.1591278782251122,-0.19237542409255823,-0.27306624871557184,-0.025943739313186,-0.10551731762157096,0.3673372452969428,0.2867619956794443,0.4428502461134791,0.1363577350224822,0.10862845437372812,-0.186668897338522,0.10727422695167284,-0.3997307304527173,-0.003498448709441704,-0.053905282510245206,0.24229998143214235,0.19166743495029628,-0.17488617899370462,-0.2590501452766614,-0.4708496080033012,-0.020658146680450146,-0.025263523060444423,-0.2787639207004188,-0.5642493141268264,-0.2781723632948402,-0.3527394674081223,-0.39708412163760515,-0.317463759585094,-0.34346073799528254,-0.48770555975439833,-0.5557759397867252,-0.4140702270517413,-0.04109838950061604,-0.43850568242682,-0.0055908163465201504,0.20084547209413553,-0.26382588110597355,0.007482024578746029,-0.09340013388960003,0.46530038614992714,1.0,0.730640545011867,0.2595852396577837,0.39889255603997376,0.18722621338058207,0.25744067659514824,0.2241432631626876,0.24030535056153024,0.18455677326186945,0.07271229530597731,0.2158711469601772,0.16863510243183724,0.03129134318667676,0.09353107658445078,-0.0034485090069681828,0.21286169683861397,0.05363602157193204,0.10744368705185528,0.166470605288623,-0.05750520100990575,0.3997283385670614,0.3632664330785221,0.20159472408639356,-0.19750493622943696,0.08603257510633816,-0.05075835655500448,0.05028199964533673,0.22282533860797007,0.02265308274586615,0.053980082368261406,-0.18617807864677843,0.02537571614481196,0.025486702221106477,-0.22744844002090364,0.032209806594339134,-0.2309730462348632,-0.09534525408975396,-0.09443710964822313,-0.2276015336076578,-0.16605767245528835,-0.09832712569700593,0.11107440423343028,-0.07098784788549427,-0.05163708338828031,0.12990204334297517,0.17256636021539193,-0.1554672435132812,-0.23773651775249624,0.03820502848395248,0.21293233448748616,0.08204819103421884,-0.16388833459960167,-0.11955603732754085,0.03359453990921732,0.01723800539760926,0.03095347863249871,-0.1361045791094996,-0.28148903308240697,-0.17746576961158117,-0.1633149306736172,-0.07644484898498621,-0.09294791376038819,-0.03896695991119568,-0.12581340252254647,-0.12259036968205972,-0.2080972119042515,-0.10100413816138548,-0.15442817740979495,-0.1469662923554045,0.012794346150020869,0.13418893664974213,0.10765647584783573,0.045268174226005216,-0.031610404297490485,-0.007647779696607922,-0.13040378835642313,0.08367020618083923,-0.0489643817445153,-0.11536479183679355,0.1327555602582955,0.011999325680011762,-0.08776653999174155,-0.006723804403200377,0.10111019055065484,0.1588590681641074,-0.14001565331084265,-0.10270939261193116,0.25652331957363195,-0.05208932131400602,0.1850279630815961,-0.05593147709670868,-0.13117370574053183,-0.12537722435530374,-0.11134895107689492,-0.22437081988379823,-0.25648173645267086,-0.3084704960746823,-0.03636244357896983,0.27354400873096024,0.12906749071413023,0.02355003360427256,0.3006998598790874,0.10879950129218006,0.38769232024839806,0.19239256570706223,0.013756567068784628,0.01314964307076336,0.20682455247973155,0.04084431063388403,0.2239129243596474,0.18859710937603577,0.07853981005125393,-0.0012726822918850717,0.0027411776902199606,0.0850296428385964,0.011447927698632404,0.0337547048050198,-0.07983036131094692,0.09458876763796864,0.16820356468940567,0.17265208533610718,0.07362367072359803,0.14598526461354083,0.26694455635588504,-0.24300439599336823,-0.22184572148042073,0.09351636073334615,-0.05866216012828541,0.1353740308363714,0.0033655684495953265,0.0030007846243168008,-0.02777473896270818,-0.23133523018466523,-0.03362999900445873,-0.18559012683492093,-0.03643878808254533,-0.11673289436079375,-0.14691093372456498,-0.3780942855837032,-0.2165840168812755,0.04732070233132335,-0.29288055339511376,0.0178654033207902,-0.04906656573845408,-0.1422356224480305,-0.12578501866913067,-0.20383402044369853,-0.25382748587305315,-0.23788744095046335,-0.09014462979735037,-0.007979255755122188,0.1619519863369119,-0.03747281720695962,0.207822242903531,0.030139280225767628,-0.13690219031393364,-0.07809159891351365,0.10070806279998436,-0.11931374787350663,0.03796508472337026,-0.1772718760005999,0.1302113505158136,0.10589020251467467,-0.15550584223872593,-0.005658618803931332,-0.25111418309015293,-0.1717579843196818,-0.16796880561338964,-0.21597950484864048,-0.16979212072364483,-0.26302268853057054,-0.14532022628103014,-0.33333530753288626,-0.16142783751773485,-0.11418920901827008,-0.09144285524760125,-0.20572101233183,-0.06894400094560756,0.12805654792283036,-0.3423840549404271,-0.1346347288394713,-0.01556145318525142,-0.08296911808507587,0.293731695586146,0.09659417029176842,0.730640545011867,1.0,0.339635361582381,0.3421605859006046,0.12832450852252159,0.093696456929302,0.0839172697226918,0.15553857390853779,0.20989599094411404,0.09979520915282104,0.032074133195672726,0.14184282127169764,0.031154146295067,0.30857883629110805,-0.04549984045520683,0.25366562237379026,0.15852016893184415,0.15085468184646925,0.25509837358611465,-0.009111833872135856,0.4498761591583213,0.44481783984729295,0.26189326053561457,-0.2596987147316733,0.16109039570250444,-0.08614995889980846,0.09707555082977971,0.33512507344607884,0.1167467503318426,0.22061390918866897,-0.16470517272054624,0.03220777856937165,-0.04566807740247683,-0.202670979742287,0.09704680702507967,-0.2831141332304094,-0.14050307379490212,0.023394810241999044,-0.36866436668487296,-0.2704667217044227,-0.2489216086981569,0.11265587956489052,-0.02878991125639341,-0.18941761767792073,0.12970367828716403,0.1586875413610671,-0.14385509313021733,-0.1020085812073324,0.10022826665729306,0.3614279037827832,0.191528128844494,-0.12525557601251291,-0.18632382739531664,-0.02212844705869555,-0.05846396706259593,-0.003170124913321028,-0.08139713545874314,-0.2493925312048111,-0.031621355330064126,-0.18247104382599127,-0.12994460247438896,-0.12342222633724914,-0.16559434691786837,-0.15854328828874714,-0.07414220601111808,-0.052387124160674155,0.04498378703046957,-0.1232183819973471,-0.2844405308004781,-0.16822882400916428,0.11999498260064068,-0.0029659233030417355,-0.08165179756573568,-0.010175674785151556,-0.09210869786864857,-0.1887695265316554,0.020838503638668918,-0.03903469426742254,0.057805729605779614,0.1503588341942697,0.08623731420983066,-0.0201533229308146,-0.013016561547260483,0.2372021704513078,0.15837432318799863,-0.03739913098358152,-0.12563858829286442,0.31630883844165664,-0.09117011765167934,0.05037306838993717,0.11966082926425473,-0.10823431051843332,-0.23839066883268753,-0.0506554304759192,-0.2296479281851264,-0.24337228482214135,-0.2857163286730829,-0.01063078102603953,0.35526870895755186,0.25046432259139817,-0.0012039894072412311,0.36763612739222,-0.23057191779577313,0.6580724543386226,0.2989854538896452,-0.025148557873266208,-0.015049389522165488,0.17442363412891584,-0.29451671989228567,0.1974704851345212,0.09288209070702669,0.08616350310884062,-0.07309091549066744,0.0367196084559501,0.10238391566300271,-0.018935350044305604,0.07333573460008118,0.015785040158787556,0.268400566350873,0.2958534458970408,0.27513510070559727,0.1131171028448574,0.15571302384673455,0.23723976272313196,-0.20820098454207947,-0.4481451793865901,0.13714620607961012,-0.06824449315388016,0.16382958109153575,-0.023176192686238717,0.09182058309568984,0.047574868974785675,-0.14045898605479748,0.1364586765563906,-0.09411573164293024,0.12099544581119973,-0.053593249546283646,-0.03809696592946308,-0.22341104238233747,-0.09496946801760947,0.10520291354619753,-0.2395512152181725,-0.015311881544555152,0.08819270213078502,-0.1325514233041955,0.0007938945084058315,-0.2999103527744695,-0.32151855466698814,-0.2956550457346296,-0.17020109833715563,-0.07947886073683044,0.24062487666483928,0.02401976269937221,0.28901073889397016,0.17925988531755108,0.008819064356443633,-0.021517916347684157,-0.05700167288874833,-0.2654779708081661,0.041288116083262695,-0.12524932619578447,0.23238971805642047,0.37157872539720366,-0.05858625092445263,-0.0005970221890974225,-0.23686253737008112,-0.015080388007903794,-0.11756891338817088,-0.20894448211472813,-0.1610316826361798,-0.16186308999821364,-0.17471767333770727,-0.27727762349623686,-0.1956233556632592,-0.02891137700591492,-0.12259009255278644,-0.316798864195976,-0.07424564772232399,0.3049087840515093,-0.364438401010714,-0.07270969765745433,-5.867666622212504e-05,0.12611534821759776,0.23806446859018443,0.13730090278103793,0.339635361582381,1.0,0.5581101206436713,0.14126694473716545,0.19576283003518763,0.056947503252511786,0.0008292287542558973,0.3523994106361041,0.1836241227253111,0.0870063040774115,0.2820256071137361,0.14026629149868347,0.2848794777795504,0.09836051003041817,0.20376974630158728,0.17210605055762596,0.3559970831254421,0.5016002281279439,0.6291368428069509,0.7300041951298887,0.6413166627461745,0.4632627838413192,0.45509582422012074,0.4244362324226224,0.4355776902744461,0.1578453018881787,0.35978642094005825,0.4351484340511068,0.21456675883348109,0.08207283126089568,0.4020658459857834,-0.04642346580356669,-0.031931307163654034,0.15784846545297196,-0.09408300685247845,-0.06003980138606703,-0.01844572581059832,-0.3131911620563504,-0.10271416120986836,-0.16452692986699788,-0.06471773662488427,0.556616841495618,-0.12698397718606302,0.44601286558094344,0.11894045134410444,0.28938312591472876,0.35967262701963487,-0.036626332613044474,0.578796466929135,0.532824676427812,0.26354504610457846,-0.1613714969771776,-0.195562215618656,-0.15255891065127367,-0.02110707533335704,-0.15247039654939942,0.002794953446519166,0.3579560734756784,-0.11139322853285565,-0.3027742552566779,-0.34585506812022454,-0.37597508507509697,-0.26263064818233534,-0.1665319335965888,-0.07141475490511814,-0.2362121049313795,-0.20086398079198536,-0.3058737638683071,-0.40458351650052665,-0.15716547827179725,-0.30027424665487135,-0.3909585972519989,-0.3377397850491384,-0.3152963858772444,-0.4038705595530705,-0.16850218425641128,-0.2903554083017904,0.07943207290941881,-0.13041527662297375,0.15258370789642867,0.13972230371584757,0.016706912761641515,0.11004686496299725,-0.16819870242093235,-0.15810118890969577,0.03892301453112901,0.24423435956698983,0.02648400161148948,-0.24634101779217088,0.2441044805161137,-0.11713890839571806,0.01595036489898933,-0.11636040806435004,-0.03330067044681197,0.09449971477410515,-0.1033665980825416,0.005762103384293704,0.5645753956283425,0.26434045642345066,0.32732126304561765,0.41879270597673135,0.29338507293417454,0.32540150748239693,0.741371501088536,0.3167634123345236,0.14535807283556157,0.14180276050287485,-0.1421778355339208,-0.0174042429172232,0.06662638457165716,0.14648999501749627,0.05697360493042829,0.17385598854960704,0.1747710078821896,0.10732208932123805,0.31218302113690977,-0.013780814185721753,0.24930506965348556,0.35187328845038257,0.3086823989250131,0.40627366303089674,0.42995861491370846,0.35560494488906824,0.35420930209847984,0.26055317541263007,0.44495579186589373,0.4112974950084182,0.17657828173813936,0.09384718829631869,-0.0433446245793449,0.21178246495884576,0.28318234776815515,0.1714484910316609,0.17051502857617,0.2891164342021771,-0.06123891927920008,0.2051690210344908,-0.05495844594032101,-0.2415666938726552,0.19124949843119257,-0.09158170334691967,-0.055400179015180566,-0.1431101405828953,-0.23859702138300432,-0.09629550715963432,-0.25144630813187246,-0.24633849639064237,-0.3005415837085973,0.016858154107526026,-0.28379775781262956,0.17840884818454983,0.25568488153101687,0.29541956696022414,-0.04852740731951521,0.047095319199883245,-0.35924476680472567,-0.06985530352137466,-0.5015596480692436,-0.12789436361389184,0.01051352446554069,0.0122127182141968,-0.0523341148265573,-0.25946040014328664,-0.4273981106651968,-0.5271820403107863,0.07570284144421872,0.04946999151890354,-0.1166785915042888,-0.5729895334091706,-0.31478107520913823,-0.34045944549978124,-0.24811938446895565,-0.20141531678779792,-0.4012568430130292,-0.5291919592034948,-0.575948148649618,-0.440902270064576,-0.2013445526396762,-0.3942855014766321,0.06693945006255383,0.20706089918061132,-0.28795551794896845,-0.14152751443810177,-0.1093503785992686,0.5581101206436714,1.0,0.19402746163743467,0.1756347462222124,0.19040629109056403,-0.06042350032909835,0.10663034860839728,0.009771869225864847,0.08479355726072568,0.23202184013302435,-0.05870392276016518,-0.004611680561824236,-0.18719925170495016,0.09296487899680089,0.11570274237972603,0.049354743943599295,0.3178810277653943,0.38203248065833434,0.553514818898453,0.5471054491742996,0.2081791681200315,0.5526934227157483,0.5127503040057898,0.3842427632714908,0.14901023729728674,0.31368121015903894,0.3479863186588435,0.21177726242786807,0.21821341315368864,0.5573490231790608,0.10644009833541612,0.13662683572971168,0.27372747652624,0.060204191576704175,-0.1774170560822578,-0.1216373730892907,-0.17020779836327835,-0.0009396789640986356,-0.025006571311260148,-0.05097403493763423,0.33801712974334636,-0.3198448273753112,0.18697289864839028,-0.17422126619149556,0.36816138076186417,-0.04632353856168218,-0.02477573182566035,0.536458057700306,0.2968914527961972,0.23864931067860087,-0.212731388969204,-0.2150370330202405,-0.2536299336012203,-0.20863971323167171,-0.15297549817590453,-0.18737211244922267,0.3095906200839495,-0.11229805311623324,-0.36756813615995976,-0.254389872555657,-0.32544549757006286,-0.18521948643666167,-0.12160449832877508,-0.2490757226488819,-0.250395841182656,0.006995035595945748,-0.13326012411415086,-0.2220555717129916,0.0004788555000517768,-0.02223160684885792,-0.1763170994317247,-0.17275638581481198,-0.09766981733840961,-0.17096594004452276,0.24248847968955153,0.0024895306416838296,-0.12635338994124196,-0.1253284711883082,0.1492020770031355,-0.004118136920583776,-0.08701645364506366,-0.07627722692172838,-0.07689938704827441,-0.2319501679980568,-0.004308937549460758,0.1501329666873898,0.03041376176953691,0.04092777231919215,0.08286493089296013,-0.14084113219957503,-0.0834224768383394,-0.09308781837513021,-0.1481684031464888,-0.0557081357615142,-0.22232854161202087,-0.08465591709973751,0.421114915685604,-0.061350363258517594,0.3930894477433399,0.27197874472471245,0.4316859808509034,0.26985838198499223,0.48933335403458,0.573735952056568,0.00260446852591573,0.1700952704171364,0.038835995044961706,-0.09561251247371112,-0.19098827190587447,-0.029098575947846563,-0.002837128887856042,-0.10536623144906164,-0.07954720851962296,-0.0742958307477761,0.13935165179827588,-0.20536345069586023,0.017093093454450228,0.1532615069880557,0.03764430531083522,0.18267840320555007,0.3334006451200637,0.4340791475776404,0.35168263573383807,0.345075021719374,0.36259491097538926,0.26285122155896823,0.281736426702136,-0.03298446059981194,-0.06970007023921539,0.1489963640888501,0.23453927927396093,0.1278181809981352,-0.04848640541735626,0.265103539576849,-0.10870116308609376,-0.07637518189623689,0.04398637930534807,-0.10885965761218266,0.23933211696758985,-0.04464280927491216,0.009118084327805212,-0.09551710972823117,-0.24039177912450407,-0.16506645081196603,-0.1444203549890901,-0.20142263330121168,-0.218453225512236,0.030833087288485213,-0.43856519772868,0.00259303577918628,0.32612359351160813,0.2813139073155522,-0.2044175812528736,0.18764030577278457,-0.3186228396673125,-0.15168911654149073,-0.47678511882462576,-0.25040649000244325,0.0235952462949282,-0.1487346437429602,-0.20949256811568395,-0.30666605444737716,-0.09026110712693376,-0.42645107765892415,-0.19236987040603087,0.020532280192783615,-0.09162992778985209,-0.474942624525467,-0.3200583187203865,-0.377985700765445,-0.08889997290544267,-0.06690872564810427,-0.2567072958227869,-0.25987025264844493,-0.3068579783555876,-0.06994848692688097,-0.022339462363751506,-0.3960094405169536,-0.060191793084698034,0.04345406857781294,-0.22478414559019527,-0.016636012124968392,-0.22585767738989876,0.19402746163743467,1.0,0.4879120227896333,0.17178267592669333,0.17589666296912942,0.3720146896798406,0.03717756009839248,0.20672383428500496,0.16613381827089888,-0.05815560277678836,-0.10327764976914929,0.042910044384864496,0.16606979630055424,-0.14188315626692055,0.018824536141230055,0.16421375130287402,0.03565474155984798,0.13399872613319852,0.10080185973128208,0.07360261797919626,0.28149351929619904,0.14546506278661875,0.058307053976690656,-0.0025377752402713123,0.17470671722275036,-0.09437385433560104,0.26273851228503714,-0.10042998810146958,0.16822675004560217,0.03043272001854216,-0.12928644835914155,0.053260060815584,-0.04890300332580386,-0.2021802571334808,-0.22199206186048856,-0.16956293510169615,-0.2476320397371464,-0.10653895719071935,0.12117045863121496,0.09491086845046165,-0.07060103853907877,0.122869484788029,0.0680155518341596,0.1037731318335542,-0.12683743485454785,-0.19719078116009384,0.135806858705242,0.08313690496105827,0.10748466236782572,-0.0779725836000546,-0.05758646803186438,-0.04429083551579192,-0.03265950788878166,-0.1873197666504828,-0.2196208461790136,0.10629795854376473,-0.06605210419544846,-0.184301976698165,-0.1402664517742356,-0.17201683255070188,-0.12169723719183424,-0.05544563929227317,-0.2026474334747229,-0.11713371776203733,-0.14109821136103964,-0.20642093725323443,-0.1964428040880678,0.05265508265686881,-0.1230562268374434,-0.13292379679878627,-0.18347326114798768,-0.08241561052905332,-0.09881268081262488,-0.03877340537716732,-0.12388548814439536,-0.16560380532937574,-0.14174882498041447,-0.050660643780393456,0.06972912590586967,-0.055643752902665565,0.02589177871097446,-0.016247773315105202,-0.02892833932180781,0.04238529991749154,0.19585445804960647,-0.1147342047436098,0.11430605347170344,0.11090345005083468,-0.15790179373246005,-0.14219944966823328,-0.27518258158544084,-0.25835176677175326,-0.1976536549734926,-0.2953248864502612,-0.03676074345045399,0.1681439170216939,0.0019531025208206145,0.3522989670782857,0.21392128173469016,0.05788090378027405,0.0968821838255508,0.22287660669312903,0.24236456047848737,0.6015480356386796,0.7850177050967568,0.4395568872908203,0.07618600180381221,0.09693544783689007,0.015054188727012493,0.15333004013043047,-0.034008925699033035,0.011750533494389872,-0.09434666559325516,0.23301886331919083,0.09650713507376986,0.12970282337216824,0.11764256578882308,0.10360446927708768,0.1620150267975706,0.24696450436467607,0.17681437242888665,0.09175250529294125,0.24814371095545587,0.1936579833587297,0.25063652124977454,0.10288464722880508,0.13824890807259238,-0.00032335665004111524,0.05272907494152701,0.026237377727072457,0.24690795376523067,0.24503205989584403,0.2575737276565243,0.18108492081743227,0.14094813561776123,-0.07636568004553228,-0.1210121566945212,0.08959832629204206,-0.06771198831705132,0.03125898519035512,-0.09021312953645101,-0.08652777804473943,-0.019564789626653773,-0.07048206722985452,-0.16621629531093843,-0.1407891232471689,0.25691046051200345,-0.1603316619140168,0.09243611630433791,0.1176475823600556,0.21479965609314228,0.16565244215380442,0.018234903325259493,-0.006829769010527656,0.1189979735066672,-0.09050447743250568,0.0072237585658061695,0.07591449168822192,0.12008469173844484,-0.028396601440425072,-0.3024548896364605,-0.020230913694198896,-0.29450616053401785,-0.18194428920306888,-0.049469662510529866,-0.14159147009068132,-0.24198054009350556,-0.22918353447516915,-0.2549410713770702,-0.15005535899134256,0.017466777476098847,-0.14157155050504,-0.19716394942155455,-0.1983558364381888,-0.06669089727734602,0.12123665575105771,-0.12190150152440218,-0.2219677129052501,0.10383717142262675,-0.2144487921063972,0.07171391112315341,0.1703332473334556,0.4879120227896333,1.0,0.1629219171730359,0.3570428134055061,0.3037226201930453,0.20165892346654432,0.12199605973099016,0.2033213676740349,0.1986904327756636,0.10985326474941327,-0.110410429142466,0.06605087163615664,-0.10783368346304983,-0.03129322964350902,0.04002083362462104,-0.06758798572175784,0.1327650335230521,-0.09038096409451384,-0.03345367020878777,0.16393567036318119,0.04238151613787433,0.08308804490539712,-0.04438900111117156,0.15214665624860865,-0.12975047639685972,0.04593962331674465,-0.17064706570413388,0.09705277960502963,0.025024441287511526,-0.13757509917756874,-0.030719540166241514,-0.11115693790678877,-0.06362869844400608,0.03682837084721071,0.025021736888173753,-0.15628659786044038,0.0562454115197126,0.08059728845753608,0.11079368563572792,-0.04006787945178318,0.0553146391558988,-0.00112827078404128,-0.05273552922511003,-0.1287582187199306,-0.18070515254350672,0.04482344859080705,0.03862869556961778,-0.14136999132366285,0.05268085099846103,-0.02143270661666614,0.011288895462218408,0.014506938267108652,-0.19196987662877313,-0.21902229320322897,-0.0718807465912379,0.011958811420039068,-0.05791908035563781,-0.07973856380494093,0.0034954077184286927,0.008820653642814286,-0.04084517696551691,-0.17817807135192248,-0.28733113218711703,-0.08009156379146083,0.04175589407030154,0.0308703900930358,-0.0005030692534925733,0.07881236506656845,0.0656125876335625,-0.023378609472016615,0.03585976560018039,0.010567889168385972,0.027236038809249432,-0.09161536378807747,-0.04068938474011571,0.014816084233577356,0.06507496090771628,-0.10783570821522208,-0.1344532281188275,-0.1354482827344627,0.054748243652709645,-0.16963413408538897,-0.08293351911838664,0.014199897978573022,-0.02805665360477928,0.06993595277890756,-0.06276702461148324,-0.22104031588112355,-0.17907193615695852,-0.11186323338888046,-0.08932071434357094,-0.11434157108711351,-0.19335085885546263,-0.08508078147554538,0.1128920556545607,0.18598326210776245,0.1519466387579843,0.2304503456151669,0.2893909525697596,0.08216043373863621,0.1503951946186558,0.1886895530644208,0.26305948989957456,0.49061764812814335,0.632899188060876,0.12122286787419204,0.11899345511005507,0.12877516587025503,0.25686312951838147,0.1740177091588012,0.1566030938519578,0.16071510125688787,0.07703921372273652,-0.14755393463993102,-0.10646617356769364,-0.01880077014447232,-0.05681534005933418,0.1037962112221496,0.20770674708522463,0.08996191077160426,-0.017898473600911773,0.15313282751507587,0.06355918426962853,0.0792732415991139,0.028945432378107715,0.0939543776331812,0.0936242862286942,0.058457113829242784,-0.12900378575700483,0.03584956853892533,0.16332256641909643,-0.10072591206302038,-0.05962808764747153,-0.007734600481086382,-0.2220917666793534,-0.09579258488286153,-0.08787270595151192,-0.20014947452389123,-0.054810787306600224,-0.15278501406126535,0.1153948170172674,-0.16507331303708284,-0.10912235765816305,-0.10603772825293865,0.04240971000996359,0.1027945945314851,-0.09506687338641753,-0.012095209309342589,-0.0872192626775511,0.01932478256368929,-0.09418730681036058,-0.17913289639884408,-0.08461721856192558,0.0953919683511365,0.04103233622349821,0.006856758612090369,0.010183233865118308,-0.0681627390389187,-0.16089750471180594,-0.2875663864345356,-0.031140234401569523,-0.19977533832941397,-0.31091704588396807,-0.11927666153571533,0.023762672296364,-0.10959564684280212,-0.27452588024462854,-0.10612594383311064,-0.2091711373721084,-0.1425395434694852,-0.03634244471755173,-0.0633747479307388,-0.03683592140050201,0.05877574492571231,-0.10600471827429817,-0.1603208494717146,-0.36366954968160253,-0.13835162217468788,-0.18227525250651389,-0.03214378832892918,0.011289193841603868,0.1629219171730359,1.0,0.19420940654590527,0.02874476914903208,0.29155381115180257,0.2832647153482326,0.1554137322922532,-0.2357347300331972,-0.22461742088011857,-0.03932405906074411,0.006599635370536765,-0.17793763311796604,-0.2189494903313753,-0.12633923767008823,0.015573240674495156,0.1865610964013701,0.10125741020355322,-0.11830685838918659,0.05572278618910331,-0.02540895166590433,0.33109110805135566,0.3480504581756845,0.04471594393449203,0.07923907165912099,-0.04774924021850533,0.005852375777154436,0.0037806244322344086,0.07537019303590611,0.06910107246513303,-0.23663708387665813,0.09824201737186683,0.06548642361812317,-0.28105889667804035,0.1387773995623282,0.0008064213114914866,0.041422745660870015,0.2842480564763249,0.0680737168156281,-0.022277571056166425,-0.02900336807553744,-0.09557214811782705,-0.052082476486187926,0.0899792097357303,-0.10650407830112155,0.06784713550800044,-0.1702466855490826,0.32062872531673126,-0.19269317028614008,-0.17087586951806574,-0.03487873623487483,-0.0670390307509419,0.010708613644100156,-0.140437980078271,-0.18235357684563605,0.10308903248004016,-0.12809649700011905,-0.04184249555562253,0.04100643240699513,0.06993414937346816,-0.13792925549871807,-0.05591665181552015,0.03119867011203366,-0.030751904731571186,0.06608178749416538,0.05489735843654256,0.2752238466692332,0.03527014923599518,-0.20018056350084087,-0.004279218055555731,-0.05312985188778636,-0.1134277131360262,-0.12700177039761476,-0.10266844463212046,-0.046314228278829896,0.007044294572132505,0.11482253635900427,-0.08175808154632125,0.091120874951211,-0.363048136458591,0.028282691781716076,-0.16101156969454838,-0.12483396037972712,0.1487056589135269,0.04687413308901524,0.27878220048699676,-0.23730980593670584,-0.1239176846929964,-0.05758095705700013,-0.3130210185630074,-0.24653299746462123,-0.34508412201378025,-0.23301560025376905,-0.18313800164339425,0.18871868541758843,0.025778863209612313,0.19912241038289752,0.2811888057015109,0.24830510379347567,0.24202917517392675,0.0835198254665294,0.2729146304437012,0.09190334267713934,0.20883551078465537,0.2352262255273192,0.26579677253104994,0.2642313840543776,-0.09717395824073657,0.014203227547379304,0.18400323094370313,-0.021005334541489246,-0.2547910553574483,0.06042580046018746,-0.056409385728867285,-0.2030746342410516,-0.19496086555793343,-0.06760712455225777,-0.1433161853581877,0.11262636830029708,0.17812323524173487,-0.08516727039743166,0.1296187364638891,0.030414047136623944,0.3164319354747619,-0.043086565413657726,0.4907942092916861,-0.06277782574832481,-0.13745046991635215,-0.07757881569848289,-0.10325552332055297,0.08583375414268227,-0.036466667412001025,0.12529976175041865,0.19455115773780687,0.05443829856377012,-0.15239940781618158,-0.15001223696767055,-0.033249231748523345,-0.1678402727590725,-0.18047081924526975,0.03725519361107161,0.06856886000033192,-0.0570499982049977,0.04787280249176799,-0.19281794803867164,-0.13671082043155056,-0.15111675169287517,-0.16997654509334015,-0.19057470579292207,0.08648344749904124,-0.03338462710782611,0.09464188506207542,0.03166124342840827,0.10361836282590854,-0.1682593563471911,-0.07501650405457062,0.06623072506647251,-0.11817092441028336,0.027632718269321576,-0.1005540888967779,-0.23310153597228656,-0.09539724825892451,-0.19068791352464595,0.05791078893794244,0.1999333748901543,-0.2879817970109947,0.0648301863179731,-0.03113985885070404,-0.12929419952556379,0.1299281666229528,-0.06628534939501658,-0.12470109186122656,-0.10510833385755843,-0.018827664427220125,-0.14460817705495127,-0.13760901817539203,-0.18874460626762823,-0.104608432775567,-0.12305500325312071,0.1334501404424791,0.10519360240567348,0.19420940654590527,1.0,0.5681454386150953,0.49143437554882713,0.17194392685647553,0.6711581560244048,0.22366725423468753,0.07897425679624728,-0.11042909249559352,-0.3321092361316335,-0.1946788033840536,-0.3726077511655865,-0.4283800640207792,-0.26152871880089573,0.15010254236953455,-0.13746482483663783,-0.33919486988337066,-0.18509522083904228,-0.4542032483952312,0.2866417639227816,0.23094505857530767,0.5170752075318134,0.03252128979581798,-0.04777802531590059,-0.2955784605886721,-0.23046776595223595,-0.32251338461044177,-0.38544436691358747,-0.17057489460617603,-0.1672413865003969,0.07085765289389531,-0.10807231227477385,0.07606620725180725,-0.1812407274586904,0.10541019005608052,0.10033062786687624,-0.15410201912703603,-0.007620286812336951,-0.1204235440811796,-0.12392097996493814,-0.4695659804217978,0.0728165839048248,-0.23031660755259056,-0.00108349313402414,-0.2744969990544451,-0.2805067878913863,0.07913299438074597,-0.06301039116126146,0.12249211124748084,0.2692877611357666,-0.05648181773529067,-0.16852898793103527,-0.498146851046905,0.17656986835044422,0.15302772361340022,-0.07544757821104339,0.20548943944068376,0.07351461014651045,-0.20988041315070727,0.09330014208411995,-0.1555033916608028,-0.19397164833538172,-0.005849865310280573,0.05820156221517842,0.015789144605516947,-0.05197976704408935,-0.14897904372835527,-0.048692461248524575,-0.13898884753203775,-0.23670036322617452,-0.3944182500977133,-0.3156338325208455,0.2726029854262378,0.055616235012577,-0.04828033508465769,-0.3719952818265941,0.11560177440827872,-0.11942660585549456,0.017777264763252663,-0.3179863205836416,0.03026985969072083,-0.3176047278940023,0.17209763894122748,-0.08271937210687114,-0.36461378918720927,0.021328199521468288,0.10145629886949278,0.24319857266740744,0.15344691319902293,0.00844370344382227,0.11945663141161247,-0.15412484871199347,-0.03039428594113886,0.06024580685980465,0.12465548063604744,0.052718720584805576,-0.002615538837874012,0.02018295223807715,-0.14226508381242312,-0.1205382287048908,0.1875180756750675,0.24460699208094608,0.27188069009744903,0.5691522473801459,0.4569161580418783,0.4950403879746698,0.5653533909248185,0.5750737691830542,0.4568441332740584,0.20649889977666888,-0.21615653044647776,-0.3017989665031682,-0.3936922562975036,-0.36278347827827434,-0.30016130431132104,-0.33612095859022334,0.09970749130716317,-0.04309327003268176,-0.5116003479113217,-0.08394161221908422,-0.2767136971659148,0.22450780588992209,-0.14138879455289355,0.3559026552455862,0.5852034416360629,0.2995248265319526,-0.29305530210194114,0.12319166440620068,0.046915497089360735,-0.4451342773853496,0.08177325292654083,0.017327652755720263,-0.306978842441323,-0.04749260657821329,-0.10020852083211948,-0.4023822790884023,-0.13752422671147238,-0.1093298438530513,0.3589205340947019,0.12307501185525176,-0.04890567024815842,-0.04487254450579231,0.1865367442810296,-0.10325468488866048,0.05576346411489456,-0.2551197919411367,-0.5287404995366697,-0.10117744497345892,0.11002998929194097,-0.15160550041114543,0.031777064910981444,0.1541678535375297,0.21233694452337068,-0.018565973731589015,-0.09957201185796835,-0.06340792305005216,0.1736490840887261,0.08862618574682554,-0.15186059430444537,-0.03078369621077409,-0.21262155466722313,-0.34756031207866933,0.11216608052358304,0.023185393032298156,-0.09671422701478355,0.10007314536778304,-0.20411152923218973,-0.14652745370965503,0.1563875358852601,-0.029979970119865,0.07689597735225655,-0.19499061033501083,-0.015344014166304015,-0.14783400220751633,-0.14756846758575284,-0.1442122401858949,0.07272518631195643,-0.02310622063832172,0.12728256710910715,0.5681454386150953,1.0,0.5802327710916929,0.2444677028834691,0.7363008983616464,0.26281018774261816,0.2131466968720661,-0.07684786722702878,-0.20606541913907997,-0.12161047435955465,-0.17792828461455631,-0.1494567374411867,0.005108838325320632,0.2923300105351632,0.02059016855960649,-0.10124366125274412,0.05656697239518144,-0.21367975512946913,0.39229358494988664,0.34882523157356665,0.5733236679271202,0.23460493186224632,0.2048265970294771,-0.14818281438838757,0.06129165257230509,-0.1903094763710106,-0.3338415618203825,0.10493421935453484,-0.11008632370394315,-0.031667279863334494,-0.12314430151857354,-0.13396595749423224,-0.2536635443751976,-0.044654567491030805,0.00796276272457925,-0.004307263535155199,-0.05228994586043646,-0.01276312170341362,-0.07141350704324191,-0.2805599773623915,0.11847076537754572,-0.2557261828313903,0.16768568153988164,-0.07659806098443998,-0.11886217006927555,-0.019854767695564497,-0.17832502757764404,-0.09762260384352547,0.16099043043387296,-0.11239811636880108,-0.06924906535405966,-0.15631150584951692,0.11997402108843613,-0.05455227851121537,-0.3355611583307164,-0.016885901907525466,-0.05247100902986641,-0.14217500770728775,-0.02838285504770232,-0.16619157402740553,-0.2649331439559411,-0.16308802571995412,-0.24928832438741855,-0.01504011359980097,-0.2408377149828192,-0.29210553404142686,-0.22177220845913076,-0.2841546399595034,-0.3027796548625852,-0.4052432709271151,-0.2890539532937576,0.24753508358248996,-0.029634205232217437,0.015098859671284022,-0.2606984660271295,0.16463967338348087,0.03437850775145412,-0.1211365280589976,-0.2733752687655807,0.04805666639163396,-0.21237739503597625,0.13140146414617923,-0.27580222271800414,-0.14503003872301273,-0.0019234208124650387,0.14315588891124967,0.1513486153215978,0.16699088703294063,0.24304028613724757,0.17536732609013123,0.0007341557501119928,0.12570865921686386,0.21477806898522916,0.3489823765876825,0.22011360231655816,-0.05646423234543308,0.0848127406848788,0.16200780617644647,-0.08244705544395933,0.487464939458276,0.3378372915332169,0.10183881426065296,0.35789894500306674,0.3606884777431408,0.6796749055017747,0.5757768028398188,0.6006211590558203,0.5732337350579312,0.2419454227238092,-0.09669899595764332,-0.0804045042864245,-0.1837862610541728,-0.1147861536675097,-0.06952343895878707,-0.09818041997417593,0.1590358184619007,-0.04295476943291965,-0.17683357538826933,0.05399316059425117,-0.06735569845779696,0.4119298785515756,0.012218497564338156,0.40527335958057464,0.4792348508442708,0.535790559111278,-0.02093599346472229,0.34736771962176693,0.1950071965619297,-0.05986110611819569,0.28250733506825876,0.08434003589071636,-0.20689854140305847,-0.13484013824582547,0.17253729963618153,-0.2300716524038636,-0.07434722795710871,-0.09109958529278682,0.011240149925312644,0.12425287038479636,-0.13950490682407035,-0.3152731148674047,-0.10832919851516828,-0.09296514264458108,-0.08011114244960642,-0.13549668838392995,-0.35333715461012594,0.029685700686046108,0.058939494323582274,-0.28193768056226687,-0.1672754390389701,0.11258226493425262,-0.008512716239855334,-0.0837173512637743,-0.1534949959794311,-0.06919622160194414,0.11250989652788236,-0.02050906012224024,-0.30199480120298344,-0.30371115411536087,-0.020090321971104295,-0.2621786160303553,-0.010753309542993068,-0.15766755622756548,-0.30823187130148577,-0.12814079279258975,-0.21519880325986257,-0.15855630324901945,-0.0976262688807576,-0.3034331332432759,-0.24637342470485823,-0.3651726728442879,0.06925091995391408,-0.23855719004046244,0.01569511759190487,0.008951979460821673,-0.07591119616021116,-0.012273261543052888,0.13768366132050527,0.5802327710916929,1.0,0.44617113518698653,0.5705168260183067,0.43452409014945126,0.416891579096168,-0.19956660406469007,-0.4407410067004127,-0.14776248193822633,-0.2150052259151448,-0.2372803497196312,0.012645347034115666,0.1635657146912882,-0.13304208292377034,-0.2954041317082702,-0.033537153075289546,-0.24726876942850187,0.4737791672333148,0.4572921953549457,0.40035425035271366,0.3432784964210648,-0.012961916519240184,-0.22475774096803044,0.010965237889560012,-0.11880906650495757,-0.2573765289152715,-0.23005181222103,-0.19888444019986148,-0.055369240160211754,-0.1576883724325444,0.004921766573953954,-0.029807105676850257,-0.017199454097781255,0.2957541747500904,-0.015923343550813894,0.09169883758796557,-0.03785680264301646,-0.06759492429870803,-0.2913353505256272,0.14284665605346272,-0.06865981561942687,0.11380782284088783,-0.07722882672642073,-0.11446032647559828,-0.12304258647645729,-0.17873436109532168,0.02362956557931581,0.072546152833139,-0.033744825437730004,-0.03668927304870217,-0.23385437762576303,0.18539159227211785,0.07253508565128367,-0.14648715279595753,0.18772625304846735,0.1281567593192222,-0.060314985706975646,-0.05623483103097274,0.06294036456938791,-0.28388626449979903,0.06925807112492574,-0.14407162651931868,0.2708076951090881,-0.06917782585062016,-0.20104812769665276,-0.09440077822038544,-0.15729440266127476,-0.3397924425442845,-0.3155404765370004,-0.24505021954825595,0.19482416504606628,0.1620841509077628,0.02718996688941683,-0.22566735310290476,0.19387922898755333,-0.2181076199378053,0.09963057660769933,-0.10113821446526358,-0.28392116623416896,-0.20787685815556736,0.009046978947706247,-0.09782227574294355,-0.1776626203695551,-0.06395000581416395,-0.03541434465194203,-0.09580003006854292,0.10651780802366707,0.13521151263476391,0.14526049989874304,-0.10706360927688555,0.039889878277449685,0.3903552819987495,-0.004421917540917606,0.2510278364813241,-0.1562965055912963,0.14937609358093942,-0.007639431511394851,-0.09158436012221549,0.14778795588963983,0.005867788686481946,0.03216207246179085,0.5070034687395685,0.4569964629466918,0.49318773184603215,0.21933092486880068,0.7203579102372185,0.6708031229351886,0.39181313181259014,-0.2475627090384352,-0.07602430487271405,-0.37475716461366954,-0.2928810195018846,-0.2112858115674276,-0.2676718140001568,0.12616275666331322,-0.11355181623210377,-0.2177170967854637,-0.04748040798056819,-0.24442056496192205,0.37920066017617127,-0.17621864072566437,0.5295928623917064,0.23947340235451703,0.2380207523842138,-0.15413292190968955,0.08650750356030777,0.030727578767972736,-0.1775914706045308,-0.013241167000720798,-0.08396515921703297,-0.24906110266113432,-0.39202134746502126,-0.15502850145056862,-0.25296847850758813,-0.06587207015225587,-0.13532504084054195,0.04951933915297151,0.042045569274171794,-0.079103848978091,-0.1083756470024703,-0.17271085652992063,-0.4009191308256946,-0.11015217869710071,-0.32050866789186444,-0.4776160882097251,-0.11255186254620277,-0.049463843173571595,-0.2653732178276707,0.024631191581395658,-0.06855553544359638,0.0015292998774334929,-0.28706653593230097,-0.31568700014686596,-0.23774540913911055,0.041384921644669,-0.03923092693918971,-0.42481844990802586,-0.050854245744597834,-0.1108954296544987,-0.21054779700604473,0.00897852211082989,-0.208337467678296,-0.12865533630655343,0.02147963535175532,-0.290848362890223,-0.1433202763373022,-0.08598961909544078,-0.2008051326723364,-0.12265685104995802,-0.24002189160110757,-0.10069397213665016,-0.15719797136521468,-0.06118905720404832,-0.17622474415108447,-0.1081655422885812,0.1229001652216464,0.04942081888053313,0.44617113518698653,1.0,0.160707077768357,0.16693682616275435,0.1767143035462674,-0.06519564704421936,-0.14983571845334187,-0.1015534332480868,-0.14126170913035713,-0.08350929524734131,0.03593683512034386,0.0961913546735034,0.0043688869993705245,-0.11733572244086182,0.0596934775424816,-0.10620765612733712,0.3313239258721252,0.4264784585742975,0.18115240616820769,0.353427378058349,0.05659045187237645,-0.09941460576803224,0.046484284717430206,0.23405526497091464,-0.06589997551093513,-0.06892238089897901,0.029421524726715848,-0.1685018972174991,-0.34042931144162275,0.0789068544017752,0.22164168754037733,0.1776720799883724,0.42147047925112846,-0.06621612570331502,0.06208191258497631,0.04541254933883671,-0.05020804546965892,-0.03923316175443634,-0.04487856185528276,-0.045465466534975935,0.18554026196260445,-0.03759862352170924,0.10846600771672966,-0.3549220886752309,-0.038450693048559595,0.013911379432777517,-0.1711230253835803,-0.24032562275935848,-0.06941025200751934,-0.1218052325670912,0.04354021986876756,-0.0629458067075231,-0.1384170359286452,0.11798939098292548,-0.019574015939740706,0.02853151919868476,-0.15463836957327495,-0.03903039419428815,-0.2591347359790729,0.08930693680572142,-0.11282003012319526,0.2415054488263988,-0.2282125571526864,-0.1560591923597314,-0.20609497986722153,-0.14646506099301035,-0.2706607848161971,-0.08030895398669367,0.0562053783250048,-0.11109588166983456,0.14653704607943777,-0.13574545948462036,-0.1975650324597032,0.027962422188221748,-0.13339594471116356,0.1583842988163521,0.0021139916563470045,-0.15538501275182812,0.003522899090426291,-0.004365836596339192,-0.01105940667037828,-0.1861400176797724,-0.13863964818096394,-0.010028350147911771,-0.3687249119526518,0.0003854636756349255,0.07748148535970947,-0.0726823401607293,-0.1463672216010146,-0.038836071065354485,0.13057956145806576,-0.03094696000065565,-0.024413642018754844,-0.05425215833141248,-0.1451887778046622,0.01385659171295626,-0.173571303148219,0.06867112074262717,0.03525556320168267,0.04366216253848253,0.5500169660313167,0.4959162513376969,0.11819351586337642,-0.2425390142669235,0.22868001466926607,0.39148478317223095,0.1923415056706229,0.007582645665595386,0.23137616370651573,-0.21332439141507928,-0.1659858052413352,-0.04276019889252044,-0.15493248275553584,0.1334436516517921,-0.04981520968585,-0.12272338504227027,0.033996415398973544,-0.13705025266905965,0.3886917968471853,-0.030742799407840297,0.39788367377227696,-0.168872124579576,-0.07177015858684099,-0.01675216181855558,0.1304849966528036,-0.0506369639585389,0.1345126357469875,0.03845590264028786,-0.1315199496348181,-0.21377901933712687,-0.4212048479812546,-0.1988312183165745,0.15042040733608217,0.22205476744566804,0.118288782158654,-0.26272647850592173,-0.08065353996093752,0.27382060646409806,0.15548004734161738,-0.13424231659873456,-0.36205522486513303,-0.1503473684662567,-0.09042905932381572,-0.25460257683528226,0.02316627072726415,0.10937299554118111,-0.33538388136568525,0.14205800824582143,0.0008931279765010691,-0.1429441933441059,-0.11405988443805896,-0.28762910796015473,-0.19574887475652689,-0.14882583574959193,-0.33337870881933235,-0.38080990661203934,-0.10510338529010008,-0.11142914162534338,-0.2187753998171324,-0.2945399552263547,-0.2577471595631978,-0.18000475257591894,-0.07281664636976741,-0.12711508894997176,0.21450803239974472,-0.22688098155255793,-0.1755734651424856,-0.12799560832402251,-0.17881383261869727,-0.20651561244079727,-0.09078939565639817,-0.12434233211176314,0.12499488099568452,-0.2313488669196405,0.35436532853575825,0.2796368007319324,0.160707077768357,1.0,0.11897209984007068,0.08138748224245827,-0.2107500082582633,-0.4602760031485469,-0.03516063618711875,-0.3645616497423256,-0.3840341266796663,-0.036786019771613034,0.33469403505016,-0.011940206810682231,-0.2929679951938497,0.06805239262803855,-0.28522718561113725,0.5463706249184417,0.30491340179992316,0.6332544886349956,0.3054753777698546,0.14539785846802553,-0.014361860284226842,0.15581435119852605,-0.16634176875351273,-0.20022364933899203,0.018877113432669148,-0.03700092888726546,0.007564698606084664,-0.160213914571997,-0.07620430923193763,-0.1538069051754594,-0.029702195138763147,-0.09436731659953022,-0.001962836484306262,-0.05765351294157544,-0.1606712519006478,-0.25519161381513433,-0.32651514207254256,0.12009587018887379,-0.23599554411904447,0.06656944170032844,-0.21955368726755883,-0.2270133428217196,0.11659912271821672,-0.1267198298060515,-0.030252494209687328,0.13086293729066384,0.00037551546994058095,-0.1043801027295486,-0.31668626016616686,0.23127238790444735,0.0662872589341945,-0.15704510826562096,0.0829606197193912,0.1402749715843207,-0.16724090119968393,0.09996178611828302,-0.10555416047659982,-0.07963748060285969,-0.08277430520485347,-0.06347878925332592,0.03678592090318204,-0.024777368323759128,-0.18168528369461023,-0.0699616646408092,-0.19245960666753167,-0.2291391924697356,-0.2587299158336132,-0.2214022707261697,0.32636045311184314,-0.0776276973321431,0.10465857953624728,-0.3690331412867944,0.20620346298564748,-0.1367520492090167,0.050477860102254704,-0.29243551960238306,0.018284183076678538,-0.3758220615892267,0.2827185523821647,-0.14737006994149127,-0.2969406312791287,0.13891231738194798,0.1661160538099188,0.24729158387512767,0.2350949785120905,0.14114402692214859,0.25434496252138367,-0.10525431489849064,0.06636062615741496,-0.03995851482822083,0.40453902902441247,0.08255516629838841,0.08178139275263088,-0.02283638528104928,0.03530035362723811,0.09694599610231452,0.27740028457976845,0.24037004139653265,0.1468254231919276,0.3429661140777419,0.16894080852160642,0.5433860440173472,0.6959332198803064,0.6018673413509833,0.4319795610577683,0.08689404428368269,-0.25775407917198073,-0.20142856415152896,-0.46936474791681737,-0.40187621026594167,-0.3683195333149743,-0.3329953555593337,0.06482947479417701,-0.07454667600310028,-0.2891970275703625,0.09892967860419583,-0.26450649141390137,0.434111249267393,-0.021597199094037532,0.3939620146287241,0.5880343221402068,0.5228638138441831,-0.05952246295739909,0.22837199857714033,0.14480316812193683,-0.18035029767251143,0.19518939910532543,-0.06560019175641832,-0.12332976648697692,0.05904879192285157,0.07186293269428493,-0.3230975376742695,-0.17649729636578512,-0.048494316379386525,0.2037867793193092,0.15991924223008824,-0.14464765291549156,-0.22564701732812145,-0.07297581275610694,-0.1184408216146123,-0.1493926829135994,-0.4006437566123821,-0.5000438212518423,-0.1546870568329603,-0.13401828596841392,-0.1758805610077019,-0.13378929547083704,-0.013736703284035352,0.025863786091232455,-0.1535510665083415,-0.1809166561636562,-0.2840798230117841,0.06072653311861636,0.05936325277239615,-0.22892667734351396,-0.11704606778435152,-0.1645790234009326,-0.2988110570925748,0.20839296818028388,-0.06955351992557421,-0.13610746240785265,0.02032378074060679,-0.05350098019123784,-0.11056738995137978,0.10322194029435013,-0.09958103723386712,-0.06151821656631633,-0.22726734133855384,-0.01982168061814666,-0.18145658499730044,-0.000993896554689744,-0.2202990484890789,0.06610557691956995,-0.005332569158023505,0.04743745817862703,0.11897209984007068,1.0,0.7073468670653562,-0.04848459108031618,-0.09881803194633136,-0.109163318961438,0.11745704037140373,0.14086599915799833,0.11563202644258144,0.23423993563162007,0.032751874737287016,-0.0028666950570751886,-0.02904739236145541,0.005554151145110343,0.07470202985185385,0.07329280170189097,0.14470521491332375,0.16299313181189895,-0.08115768803470003,-0.268540666705262,-0.1123243472101231,-0.18665668326182525,-0.3545341846499244,-0.12365702538763979,-0.33119719580025847,0.02408621761986996,0.04971911468977416,0.028048596988604048,-0.0035637195243544795,0.092922171007027,0.029483243124260237,0.17494627182148537,0.11532937682719532,0.2338525581509058,0.10956149903708644,-0.09647328665768326,0.009858357044868975,0.002470215336062016,0.27185830633871994,0.24146965302613785,-0.057085981954198825,0.02061054702459356,-0.03586324045901118,0.031834561426221646,0.16854428957700943,-0.10723081695378187,0.002271440040074993,-0.02288884021718329,-0.025194570530938196,0.10239845943041397,-0.13067951772112707,0.14710993697111643,0.013808425268710806,-0.06517012843298604,-0.08928163382754349,0.07036646967193207,-0.2500438877635405,0.19277745282330563,-0.010353448481086604,0.10232319156445809,-0.057988410904434136,0.03727199406456354,-0.0278532108676696,0.004677938328027974,-0.14473694912375215,-0.16187725397269487,-0.14073015509202774,0.004672769587943542,0.10941072279129405,-0.0705578485183788,-0.08155397419749813,-0.026053730741407665,-0.08844852923691128,0.06366661543434622,0.11935993554383814,-0.24234550242081848,-0.10105833570076476,-0.25077940431386003,-0.291757407061185,-0.04806523586522824,-0.33807629572301806,-0.1724325051149172,0.004913482703142345,-0.08509940041270703,0.09502511220045837,-0.029014304192930836,-0.09318427638491246,0.07923752816495452,0.5232041848604396,-0.24386344492612244,0.14648679911564944,-0.06051132552678753,0.06120676010651305,0.0346677968791659,-0.2958084859839883,-0.008823055430632372,-0.10001809425591472,0.03887420254675476,0.10020518192580714,0.22905388679531208,0.37723455342902984,0.023434395654148784,0.38890466506635896,0.5702800071830113,0.9172213073883416,-0.04687456470738814,-0.042700967434834335,0.017764400016589604,0.08432468050033917,0.06964305052173084,0.1053533517830691,0.29985748634725967,0.05499391503669564,-0.06162376103846082,-0.06857844764621013,0.0036196623363992575,-0.026860504496393607,-0.10400032181472728,-0.007921139232891113,-0.019086497430412103,0.06777536718723905,-0.2011992668056996,-0.14708511521181672,-0.1341332526105994,-0.2784608416924356,-0.2092606813278464,-0.1604696296002522,-0.381164832691365,-0.27693795595756054,-0.09214592918455736,-0.352849492986696,0.12108211307590871,-0.11717609680663015,0.06097669489105481,0.16877900837572865,0.0807535488323087,0.06552672348386387,0.11787275777182644,-0.16061517424984767,0.16747945691350272,0.11356389131533788,-0.08630082987906913,0.07474156309782316,0.16941011871825512,-0.15540910902595034,0.1314835838628977,0.1235899879765286,0.20037781641704,-0.07055191970052431,-0.23064416628199064,0.1199780211392824,-0.03464910281078257,0.01963171935855962,-0.12509265637850264,0.006703385255317288,-0.05215165429569506,-0.11169287795056088,-0.15023380401228495,0.016449500203697124,-0.110401786736086,0.08748162137985345,-0.34459298986837966,-0.3508728399510165,-0.04187935278882744,-0.0537234275799804,0.006029371343144135,-0.1375824561773497,-0.09067384724194696,-0.012773503390668845,-0.05015897335555738,-0.049779463482351786,-0.0670546665822459,-0.015657234578715214,-0.026951044905338152,0.7073468670653562,1.0,0.07321100426342508,0.0491953629108008,0.19950284448034064,0.2419768107457257,0.3163677661504886,0.17375289975190628,0.26261169781244964,0.10811050856750239,0.15712383871461863,-0.03951991270146102,0.20637714731506968,0.08365455638355562,0.1638509806764074,0.19581987568096265,0.2803323205723468,0.23734753184011,-0.16569580970012648,0.01724775807433652,-0.1430903324452008,-0.2094292774148397,0.0013334391928229493,-0.2835625741459416,-0.1086275142280581,0.06699820894619732,-0.15555039904928575,-0.03846074239453358,-0.06353120047560215,0.09835587874276126,0.2370336434406004,-0.005899165519159749,0.16252080520738107,0.15279663990652176,-0.060771621367674666,0.02861536773969012,0.1087197525325258,0.3878606743981876,0.39192409587136856,-0.043546880757614245,-0.07637377664425642,-0.1597808013464701,-0.0879703092792788,-0.07472458383511059,-0.14572655665285456,0.16419327172083445,0.18432646873894937,0.06552716566455026,-0.04623371900369192,-0.19708225999102807,-0.03892232655578044,-0.0550782976053167,0.007550794997348944,-0.0368217976752347,0.05224386512361339,-0.26614235108647427,-0.050354300021264696,-0.23781778418459715,0.009283850135702529,-0.1742761820211161,-0.13192399476203265,-0.12811727141572612,-0.17490557948293636,-0.3147790192776084,-0.17891673002862832,-0.05876878500131669,0.02751608021306076,0.07315219676467939,0.005920781690166539,0.1383638666372364,0.0569176876488244,0.13595371911556786,0.1794305660632551,0.22985599338886503,-0.18386521125864283,0.11003246389784838,-0.2847647728013992,-0.24956077957963127,0.22832673858500177,-0.2070797894541263,-0.18747567437323276,0.03324743669039632,-0.09758604441692575,0.10690687423115612,0.035432308635492446,0.1366788643256569,0.1430671466096262,0.6880800074827635,-0.2354531741408601,0.19075533155386512,-0.22988424678178757,0.2660028779994229,0.1281617509196125,-0.2656224731216989,0.01774601956537352,-0.16849166143873556,-0.21906937739015697,0.04881927095808804,0.1288618202181691,0.24207332434470863,-0.1011124029640126,0.399074256219928,0.4775017022651282,0.6514837509182295,0.02361404559214448,0.18598789598761067,0.2695113599921508,0.2870348309582272,0.21287505422585032,0.1966772476315356,0.22541424046692607,-0.013380959391959362,0.06682579231038477,-0.20669215037504077,0.1065347190752384,0.02013535750913566,0.08190278833739247,-0.040488095793325345,-0.008386020781598823,0.0925166929809194,-0.012948700178754073,-0.002022018912249716,0.02560157165711992,0.0448132288219259,-0.11385574872614145,-0.11472526159145612,-0.23522461724540408,-0.18311812522593013,-0.06745943707517155,-0.1677861921905731,-0.06579875745965626,-0.07642239335399016,-0.1110845054698686,0.08456555455837006,-0.10780989456164668,-0.0982788730165845,-0.06519290854475389,-0.12069440543817768,-0.0160304374399357,0.10886626327728371,-0.040085781235703145,0.12357165794615602,0.242646601220034,-0.14737824520743892,-0.08880764085696878,-0.13055733243041528,-0.12828166705117158,-0.15147209256245017,-0.3188670213071395,0.14928012978063415,0.03904936738562272,-0.08870327204057848,-0.2362463249392285,-0.09430712900729432,0.22213942917693924,-0.012068051804668935,-0.13696096365656185,-0.09742889811929241,-0.17922520715078188,-0.03050284822539565,-0.3712853012766415,-0.32415951221880107,-0.16909503500655435,-0.23228656242755127,-0.2023263728378857,-0.2048135190736081,0.00703327216540219,-0.05164521006995512,0.10670539072231264,0.1430738691788125,0.08979215613860815,0.06263976988833651,0.11756542782567989,0.07321100426342508,1.0,0.3686979380542079,0.2428188716817462,0.3576825895933387,0.22946865548772705,0.13691889053301656,0.1335048114520453,0.18414222148015527,0.27826397883393295,-0.06295348825496636,-0.006277272195569145,-0.029281334801357365,0.10864387813103142,-0.09865237923841702,0.0738233257694046,0.09889001846414995,-0.04250464956354935,-0.2225987594707017,-0.31669770214348286,-0.175696861219953,-0.030742708293248093,-0.1408178846031894,0.20714159039677352,-0.03697747848365182,0.058835042024981694,0.24624817264016793,0.1387499960829116,0.07115017149677191,0.27945763958340086,0.14526971150956253,0.3240819693485793,0.40262669734597606,0.008534371279669809,0.17983862059316194,-0.051857546733581936,0.1840523927308608,0.2782476280334556,0.2369252997626832,0.1369545322803207,-0.11273602332683294,-0.0006883885156518829,0.06618768395801419,-0.10527947269757212,0.30046171329233445,0.07189267537491342,0.06713893804521869,-0.053039971003870014,-0.1338235305445125,-0.02635807527307958,-0.05422753460734701,-0.11608852177784316,0.024732993641142672,-0.1097455732660291,-0.3157002588284534,-0.20032213635849389,-0.13197166156158163,-0.28340836975624734,-0.3705667029840697,-0.2506347373438641,-0.17144305548877403,-0.30103169891007153,-0.17659682836017213,-0.39875568403922645,-0.18058717557327608,0.03848529408818012,-0.04290471716161071,-0.08937271576858678,0.3598979678965718,0.22007254995056963,0.3766619057004134,-0.11865458559464076,0.15723487498494657,0.45561552191630655,0.24352832579125464,-0.01219983538668877,-0.03387822390966266,0.19830652979063929,0.0867340637187792,0.24762329347243164,0.08047573999129091,0.01694382537977145,0.06645592610219582,0.11710110107124844,0.2503310986067725,0.07868008381100337,0.15482055369764358,0.0027277668539883206,0.10245468171507457,0.057726402113971,0.035968805121744746,0.010056899819330027,-0.232194738155096,0.09260346362257155,0.0032050807197127294,-0.018141371777693805,-0.007584652029103539,0.14301453970230887,0.07316653012278201,-0.09890361453632003,-0.0533953095231754,0.02157158703365516,-0.011362659971732945,0.41289965723140815,0.1661609880226561,0.4133264983614109,0.262254756011542,0.314462771604087,0.1604862275909302,0.0739380235972476,0.032144756889131806,0.011404866522379913,0.004632529976675038,0.22480475121595017,0.07982768154469351,0.06524572464720688,-0.08204286322611516,0.04832458365178492,0.006263100636319487,0.15977972707882054,0.08511548917822762,0.1088661044156379,-0.010454505168043856,0.013503592589966276,0.14709401869487715,-0.0978031195215788,-0.24807832127660975,0.11014036924170516,0.1005681042983529,-0.12539753664065775,-0.15125668449224297,-0.2253325462399438,-0.187639871976283,0.09233743104678653,0.02295856702412549,0.06709146053888072,0.47891713441025496,-0.07335717880981006,0.17425705216316875,0.05025436070991916,0.1536707969426226,0.1049047594572668,0.24815358388513353,-0.2027728383227422,0.050336588394818194,-0.24435607115363553,-0.10206418183220067,-0.18190345843850275,0.09904716647967168,0.009698610267790874,-0.175962098593111,-0.26380999047647696,-0.2152770560575124,0.3777252652268964,-0.0013726319156802756,-0.03770547563925766,-0.31294373274177834,-0.10889801497428392,-0.14136781206892465,-0.22850760741727083,0.0017692543913606213,-0.36182388033963137,-0.4126838737449855,-0.20085076298984367,-0.4365172782886486,-0.08852109613045932,-0.06322813492957503,0.3316186487230225,0.5864601196600605,-0.026146961987350413,-0.1874374018112286,0.0277086940551224,0.3686979380542079,1.0,0.20715530157330464,0.38617373900483537,0.587752870059618,0.006531537132035787,0.19312145761493857,0.399883791229282,0.43461489163655315,-0.022129731057609486,0.31826779892507856,-0.41301707115295455,-0.18972646741721497,-0.22655411779623527,-0.191708613385854,0.01731329062103212,-0.04622274972208587,0.02519493034674979,-0.09834449821429664,-0.15062251439650892,0.16623400932103138,-0.10922487523060936,0.15651498000980096,0.2068010977276864,0.008920663309300317,-0.10196910224047992,0.11510743590454296,0.08910244609949232,0.26358695419621614,-0.31636643168746625,0.1811476350563853,0.09702616999632595,-0.019024491953958212,-0.2849723811117913,-0.0002673193719189857,0.3702754406845351,0.319652144262535,0.19081485253883393,-0.31468781408324537,-0.24298199601495793,-0.3844965920485818,-0.22720366418803087,-0.3799178719816384,-0.1838606733009772,0.16094118558965242,-0.32035336784824753,-0.3443252868443907,-0.3041571737246141,-0.37797124827852013,-0.4496110297659281,-0.26460672930403034,0.03298814157372702,-0.2179805651378507,-0.0919200866456532,0.02603794029459681,-0.14723158009195225,-0.0072756430674050365,-0.09950287048367401,-0.11308005605021908,-0.019042433097697955,0.026568881340544675,-0.01463229225417302,0.08955935315747342,0.10689884041657356,-0.20880731590925997,0.059523452930372575,-0.059518119052845646,0.1515960724042937,-0.2623590489719848,0.16727178201645693,-0.0230037316838738,0.0031683199694402587,0.25524162069474665,0.7602130809890602,-0.23134456958926797,0.09111265214014265,0.483393616057793,-0.2546884850489914,-0.10833995125434553,-0.2555502980061286,-0.4310786921788024,-0.2597899079981774,-0.4970398213683185,0.25523933907457586,0.4974417610217026,0.18010619544124026,0.10512411320332513,0.339635639636926,0.26433507688842883,0.33050619267756887,0.459450217204392,0.08795341325461399,0.04935030984315813,0.1808088265934168,0.03001999755449875,-0.17931961947378303,-0.0025279416073410678,-0.17928384635560368,-0.25706882993580094,-0.2865560779331124,-0.19277968007647456,-0.02388095159961041,0.7123597069141054,0.304484811830996,0.682970037283254,0.7128101035755152,0.6761402202839712,0.597711501526377,0.42002985798128784,0.5728759155587118,0.1391677739174211,0.06365778845974075,0.639797150991986,-0.0703957522817885,0.34935614835618645,-0.12830480507849013,-0.2613196027771469,-0.120095690540774,0.18291843324926352,-0.0448207196743184,-0.11288612948545226,0.2553514834269194,0.04916165054645086,0.2550361986269494,-0.11407440213634731,-0.03664194699008541,0.223026643768407,0.07172255107849507,0.04329903223974244,0.07833906514603772,-0.16978188765642155,-0.21538701366842,0.039029976854112525,0.07243078008776281,0.044141792700914874,0.37653920195949775,-0.1293322602951723,0.5865541374669149,0.34648360635962844,0.5964528331435021,0.3070956046414089,0.2233537086800073,-0.09331509179567786,0.2316978087713188,-0.32365460179092254,0.0870929246622513,0.06311709827810015,0.40682993642371074,0.16015248514372582,-0.3319316926822676,0.08996130531041843,-0.4602952739961064,0.0659809840686835,-0.03265428833248963,-0.18608343842889377,-0.21659735419929904,-0.3575590666922456,-0.3755464846354152,-0.27935883134405676,-0.017393843114835553,-0.26292983991495644,-0.19618213822146685,-0.17790146103037027,-0.00910268982967242,0.21569888860646264,-0.2098374367918912,-0.14902662946686884,0.2892106195840186,-0.03947543657184979,0.06600918077209836,0.028316640746303343,0.20715530157330467,1.0,0.27905811303812605,0.2827497917832445,0.10078501342477438,0.027914812963939065,0.17527554344408297,0.34898028982383483,-0.057140519659874135,0.17264483128758035,-0.08015025557265054,-0.20387782753566472,-0.05221050077955492,-0.024928323493009243,0.2681027343913728,0.08300831386094112,0.10395896598197772,0.01687314468942273,-0.01566986494135515,0.08116682734088985,-0.12948221605151136,-0.21151075604996025,0.05199571514276925,-0.17694135328459745,-0.03825861099800741,-0.12063852765285527,-0.01392435823078048,0.16964236867622967,-0.0030956641649812146,-0.03871982836773427,0.04094707787618217,-0.055898073907525034,-0.18514857198276183,-0.03186190013891092,0.10510232045069452,0.07416510282781974,-0.14174635078635076,0.05132036151666364,-0.11543975378269118,-0.2467427530680137,-0.284608766732485,-0.025128914290489385,0.4113971050031876,0.21040041528256287,0.07657470376155029,0.030999109580948377,-0.021617682468066782,0.054534224517077595,-0.01633074385284113,0.18347723451549813,0.007427417936873688,-0.08977640399267367,-0.0035088179426898164,-0.14956233588876652,0.031182380485441943,-0.06849010200195478,0.018719590542788187,0.1159103215238796,0.026644678587579365,-0.07175379848876609,-0.21961511553430996,-0.04652894192875186,0.007884157901865706,-0.09837751694520526,-0.08843674478595366,-0.05764677501264944,0.23445732131526217,0.07054070718704497,0.30829620413377373,0.09128317559692511,0.3219420699300656,0.0551812187432688,0.1874126417957941,-0.21125716545840292,-0.09123726398842073,0.5122387814719057,0.12946913982605762,0.0028193007312127647,0.16480111690586335,-0.046976527373842974,-0.005505327937855687,0.1924360775681152,0.4564284171515845,0.10696705628173332,0.17281476265709372,0.08667632887033715,0.1175847725629024,0.0377288144609926,0.20789552759154648,0.048718304144969776,0.03047647068497244,0.015497448771497968,-0.08333405397615742,-0.19891829769706945,-0.33619374534423085,-0.2768781166654524,-0.05073449391057833,-0.024298339696711253,-0.08559759337101065,-0.06771226666898697,-0.12069989351186056,0.13111727451146665,0.273926499452343,0.3533618306329665,0.3289417004349033,0.15729905877503084,0.1891962011176812,-0.039200421799207096,0.08644991180110666,0.2039187120487609,-0.12234546643130632,0.21709242103197085,-0.0599285901283004,0.30126217777841274,-0.16888411698491823,-0.006278911674225432,0.07556361909545117,0.1734314779573106,0.13073609801114505,0.15841703362735554,0.24869952880460983,-0.06435361913884317,-0.07471770893437372,0.04404057285739407,0.0671822740787876,0.09773672258599235,-0.06505021955171227,-0.3135771585203101,-0.09059183488794573,-0.13987921415564844,-0.15462498885109235,-0.19283181730115012,-0.2217703401891385,-0.16379417666224977,0.20223335043734417,-0.18631759168523515,-0.03871059105456793,0.06395374328836849,-0.03485099532789052,-0.09932702578506684,-0.13400776229610611,-0.23427765346309165,-0.30772805537870457,-0.25018834962145936,-0.2227365852390396,-0.15861255991765763,-0.038300408876199496,-0.15620294433381088,-0.06581587775915254,-0.10459257604339701,-0.1043076059099646,0.445762241887732,0.17854358248385582,0.060125054918986794,0.030672198044049935,-0.12363378349524207,0.04390101122301332,-0.08730173056402207,-0.1536085953483267,-0.11782390195568304,-0.04669693937156857,-0.05144064253212366,-0.015937734216359942,-0.010350514694581215,-0.01917660643704965,0.23345230345524923,0.2328638354395353,0.23944063723381587,-0.04046679935920768,0.0647152877459126,0.27905811303812605,1.0,0.7647097496616205,0.47007439977252263,0.2759118597050155,0.5078450334445416,0.6294113090005029,0.1241048160629483,0.43153517482118503,-0.22259431207319363,-0.22658770743889572,-0.08733456637469651,-0.08657260107773804,-0.07278296133440879,-0.18970959553335096,0.09164046990027824,-0.11018176949738914,-0.2162477162238287,0.03104458310670601,-0.3854176052421784,-0.18203261291499048,0.061959701030840246,-0.2612904420178533,-0.19007040280574528,-0.16065554249583383,-0.14608270075959173,0.42697393370156966,0.26315062511846654,0.690028792931288,0.7098099963488722,0.3314023405977452,0.1006853956171274,0.24478416693641064,0.2843576868154191,0.654923731532916,0.11757309033337528,0.18064565421321296,0.046538686873952816,0.08660249960696953,0.1554588646148001,-0.07425827084577366,0.2317610555133341,0.45387798322966816,-0.25620695696450385,-0.08473540494542565,-0.1483491263470258,-0.1976231978576141,-0.27416611510456884,0.07707835242772815,-0.25004972375935364,0.010030677168204518,-0.3406253920069838,-0.2758281387858718,-0.24509085414217005,-0.2074846009735476,-0.12594885826944044,-0.07917314248348227,-0.2805735812942777,-0.14459292304825538,-0.1915697347475057,-0.11142246790852148,-0.2181552933985364,-0.3028497015549939,-0.11465846420926636,-0.1184751681239608,0.574568542799759,-0.07295896809982436,0.32610956936953756,-0.0550318303057473,0.34384987808053,-0.030332533148008583,0.33549612856542294,-0.37745632630828735,-0.207882382681532,0.47226509736845645,-0.2687470914668395,-0.18082720460660875,-0.11864521847795756,-0.2788685039920365,-0.05034773943663456,-0.17213366818813133,0.12175757487466728,0.3344040031759053,0.2293085743854185,-0.06446637395997404,0.13358068094314304,0.04041460984378042,0.12898373944624023,0.4169474491050054,0.05154127949822613,-7.764150936897718e-05,0.00038005877522462127,-0.1387906265055691,-0.3112922383811504,-0.06517658055297651,-0.17505776853681063,-0.3121608319713679,-0.1894654223348584,-0.05759313321657305,0.124167230053084,0.4621822885720125,0.15077609847388787,0.687925001926955,0.6497043495220247,0.654690329685447,0.7406513116585347,0.31472518496586527,0.2741438837029593,0.3728744398776582,0.07634201696784483,0.4852972456173335,-0.06868810206498335,0.27033194776609426,-0.3592336468478948,-0.297190052088736,-0.12698823342712365,0.0016860364524038866,-0.17530052287596143,-0.07980289431020739,0.31051148507759774,-0.23670915722566271,0.2631962103577228,-0.16065932198448485,-0.24127417626332007,0.08473589236611206,-0.13324321465165131,0.0478782605753211,-0.26685544287691665,-0.2620158476693746,-0.061321696306196875,-0.08947067080227461,-0.12788516968433028,-0.17303630287266175,0.21582305021845516,0.26906337157797205,0.5818237263015555,0.5622889006263269,0.3487896124226761,0.15776572616968568,0.10191886622141512,-0.21361614733213935,0.23617998342325333,-0.1035680240440462,0.1759393091158593,0.10747012957451288,0.45175067732151897,0.07913727309327469,-0.020186360704165407,-0.09842302329331552,-0.238891279509289,0.24581440634541363,0.38100455455798016,-0.22957107632831136,-0.2830705397812675,-0.1725196929037391,-0.16984330455258545,-0.3377748555369566,-0.3790571409497809,-0.38413657868474926,-0.3532062296400068,-0.38045988727455526,-0.2938586331554649,-0.08684540210836911,-0.059822003925847606,0.15731314076865283,0.26646832346907434,-0.22413163675096104,-0.09413310544223337,-0.035951636362598335,0.7647097496616205,1.0,0.4932081794837572,0.40576944547508065,0.6277665731259223,0.6672409601772633,0.36675596816055206,0.6872136759815624,-0.16767363283915726,-0.19435655389700476,-0.09968240932128898,-0.03265777770307981,0.0646427404344754,-0.07982165566204291,0.2168315144671042,-0.03836653110860052,-0.10191410703810223,0.1343574141255491,-0.2722589583310901,-0.1868177421174189,0.11448176650804924,-0.23277531403607307,-0.2122331291400598,-0.03875572416601288,-0.05466576358412852,0.5717886450518226,-0.10859794473606112,0.5344759545267884,0.3951916334350477,0.42780388124169594,-0.06825045227749643,0.1135722166752591,0.5362714352710377,0.7136707817652019,0.29199842624895905,-0.14693939089164837,-0.15727423981111524,-0.19243738788286943,-0.13877936092369156,-0.23241418507362988,0.07946774670383408,0.6197951950797993,-0.3804891595700437,-0.33985245773555045,-0.26106344357785144,-0.42119354455120595,-0.4778186975208041,-0.04588373626144888,-0.27969291505315563,-0.15256048376301493,-0.31010082848370113,-0.170028469762259,-0.339864744232851,-0.10525989432538012,-0.15644995864170727,-0.14573917086312807,-0.2540711560771234,-0.08978018364339171,-0.24408481969859583,0.028297733866656908,-0.1160501070044503,-0.41542737291449466,-0.07915989997344394,-0.09216627798815899,0.5027436483768074,-0.2483287675564216,0.2013921664738676,-0.0768647340267047,0.19678801411464927,0.018213644659503564,0.5464119021894552,-0.38869325829399554,-0.1860176670936829,0.5577544212882207,-0.34869979408259,-0.1694236863659746,-0.2373977662667049,-0.3938090595799576,-0.13779005628704635,-0.4153930213209878,0.20866352518160103,0.5340298424748763,0.3269756792230715,0.07734812291551484,0.3495579836379788,0.2134669807677078,0.3099106111314318,0.6211198463319579,0.2634187554161681,0.048524147875345605,0.10304204163913112,-0.08653444096308649,-0.31825835304614447,-0.12228083876636006,-0.19102774086993768,-0.3599285551159705,-0.22520393286163373,-0.05975062788911729,0.14652482179053017,0.5934754203007051,0.15162525816400907,0.7440215132900867,0.8300496732955882,0.6954185401256581,0.7970221225944408,0.5154486061507572,0.5447586175205026,0.5418150396349615,0.23541880602810109,0.7316544377135723,0.022486924626870543,0.38530792116200113,-0.2673539696774585,-0.4084952476858725,-0.13961383143288847,0.16731387921298213,-0.11439803446729307,-0.10045501231128463,0.4457793862573075,-0.1901258755432632,0.22140110311752767,-0.10977041247633205,-0.26506950083067005,0.1316646097203806,-0.06587863748957155,0.07873560506770691,-0.20742177258454053,-0.3313086111280956,-0.1996544039742628,-0.09071117347824396,-0.10157570062567799,-0.1679646114326774,0.21974959331891727,-0.09019752548981419,0.5560126199313936,0.648713711912836,0.5398504683025144,0.157625597285794,0.14703289936434433,-0.24161642659594437,0.14225224378927026,-0.3666408570459804,0.00706152993880166,0.10718508366952285,0.3871957783496205,-0.015909061797626724,-0.2538021260986416,-0.07911411877477066,-0.4309862955430708,0.1465784965597776,0.2880170035059561,-0.34894492837029817,-0.4261682905295388,-0.3050445663869528,-0.41557741523321057,-0.42850244452551306,-0.3231760690940817,-0.45926372825795103,-0.4107260487561476,-0.4259912889813592,-0.16656583120492488,-0.014780202215599164,-0.19112061065484853,-0.03933981059801146,0.32395176694405114,-0.28758862200285173,-0.1138006825478194,-0.17378151833875097,0.4932081794837571,1.0,0.4679889630548508,0.5542923308739724,0.5017336312108222,0.6027657667773139,0.5582716054703065,0.4901317948040043,0.1624392904257708,0.1834297475543262,0.4550089412205042,0.156651153865576,0.32762443096840627,0.4108727794554969,0.17425341592746735,0.2243332090570944,0.23367487509777543,0.10610100502164203,-0.0959438812261483,-0.1952570479989466,-0.1410729245600897,0.09761890720709585,-0.1521008848296267,-0.22704345813728388,0.6391053438733255,0.20432963336820031,0.5565123052729277,0.30242310725409655,0.6602067315632946,0.5161918670355473,0.13570668134102978,0.4461022893691554,0.5852146231401305,0.44920589073481976,-0.0074299639655759425,0.004528256190293401,0.04953296970176232,0.0434848239211086,0.05780545974975044,0.2860362641232295,0.5964735361280337,0.0068178223191146985,-0.2219570406499416,-0.19198965955905256,-0.2450941414622354,-0.095598947973492,0.04677333046149236,-0.291368096517272,-0.07325197370316994,-0.19545236097175267,-0.24959598903779912,-0.27241021914421176,-0.2996980518278112,-0.3104523491196896,-0.28504354042287905,-0.4265752560228948,-0.36046456787570313,-0.32062721410963374,-0.11613243068382532,-0.22956037113029223,-0.15426073798905815,-0.2469423246135192,0.15216283927315857,0.4071779617537953,0.02720995490317115,