0.16724065	0.5493812	0.45343393	0.13259026	0.49615568	0.33747542	0.50664115	0.21510975	0.564849	0.30342773	0.4147795	-0.050034333	-0.029089658	-0.005804798	-0.17545518	0.05638886	0.19295016	0.0076426943	-0.04649082	0.16390865	-0.0711602	-0.1398666	-0.19773905	0.073076405	0.040672533	-0.41107658	-0.40497708	0.2172829	-0.031001674	-0.06486752	-0.22409399	-0.14948304	0.03605098	0.059781555	0.094149806	-0.21968411	0.27575842	-0.020028273	0.229717	0.19908814	-0.043998946	0.24494171	0.010222698	0.36373812	0.21000692	-0.035084154	0.22885792	0.1528583	0.31354216	0.18553507	-0.14982013	0.06545392	0.23436956	0.13509515	0.051401235	0.04011364	-0.2760912	-0.050601296	-0.27119642	0.14713107	0.06563256	-0.13734603	0.050324872	-0.0377055	0.22626826	-0.17552185	-0.22055113	-0.16748227	-0.18386038	-0.17941551	-0.019427055	-0.043770988	-0.031474784	-0.31119868	-0.13017702	-0.22145966	-0.02826764	-0.23691703	-0.08681751	-0.2459992	0.012367083	-0.14292037	-0.21940096	-0.12186805	-0.210302	-0.23109114	-0.17321041	-0.16688606	0.06764516	0.049999062	0.15304467	0.013613222	-0.08838404	0.09289126	-0.12738487	0.010217613	-0.019126432	-0.24150085	-0.2320283	0.5862312	-0.058462966	0.7337409	0.18385567	-0.10551387	0.59385026	0.49614963	0.14905468	0.4884051	0.22096859	0.15326707	0.16517743	-0.023150899	-0.33598068	0.21415448	-0.033200674	0.3030296	-0.17987381	0.015891427	0.19144207	-0.05594149	-0.034075353	0.11102731	0.108258635	-0.14860688	-0.10361525	-0.008738447	-0.20634109	-0.13769498	-0.34275404	0.052707903	-0.09152735	-0.26258674	-0.15575022	-0.22341469	-0.24753904	-0.024033027	-0.0021929794	0.008020605	0.31338558	-0.022135623	0.23433927	0.0897633	0.045849327	0.069695674	-0.04907706	0.3469952	0.21534406	0.022702724	0.16211173	0.063433215	-0.097668454	0.09131788	-0.021731824	0.10994715	0.2604172	0.012786405	0.098178916	-0.067390956	-0.20559092	0.16904521	0.1419739	0.0838389	0.20736477	-0.46547747	-0.23406538	-0.1068005	-0.024862885	-0.12920511	0.15749028	-0.2709202	-0.19227399	-0.36288208	-0.23359911	-0.09247806	-0.2661599	-0.18257354	-0.3488491	0.04655224	-0.2402659	-0.055861715	-0.26358184	-0.018010598	-0.27068856	-0.14202811	-0.26702982	0.1625835	0.3392764	-0.15693177	-0.12256915	-0.0371382	-0.10051132	-0.07095234	-0.25844797	0.026502265	0.24940205	-0.21361667	-0.061836176	-0.12705833	-0.14292325	0.37043297	0.41466427	-0.12505892	-0.28851315	-0.34783396	-0.28771695	-0.3258939	-0.18218394	-0.21540801	-0.1870394	-0.17692909	-0.22331353	0.10313546	-0.15900064	-0.30866912	0.0015426829	0.117068835	0.2542899	0.41373527	-0.052495036	-0.31579262	-0.029877495	0.1543864	-0.23938973	-0.20548941	-0.3469978	-0.0845355	0.07248731	-0.32303894	-0.17065287	-0.1368255	-0.31170145	-0.18950339	-0.21570078	-0.18460767	-0.06797801	-0.15092792	-0.20343181	-0.085108705	-0.3003772	-0.29599664	-0.35968515	-0.14188106	-0.074967295	0.19371636	-0.008689258	-0.30290496	-0.02962667	0.15043162	0.0453847	0.30102384	0.16857396	0.18073119	0.26343396	-0.17261232	0.0011032731	-0.08646021	-0.08391139	-0.06833409	-0.27917612	0.15490833	-0.26699024	-0.20344448	0.042233802	-0.08608206	0.13636167	0.10802657	-0.08224913	-0.11372173	-0.29459095	-0.24706656	-0.1164706	0.060836773	0.21050483	0.14940606	0.11429531	-0.016595956	-0.09009898	0.0117968265	0.106009446	0.4228455	0.30387142	0.4011771	0.4090994	0.31268644	0.20204039	0.38153166	0.20461215	0.34471166	0.18792579	-0.23931146	0.22843052	0.02688164	-0.065544955	-0.13379648	-0.36255506	0.17383845	0.03494902	-0.17771204	0.18075004	-0.076671	0.65873766	-0.145602	-0.111729816	-0.21593855	-0.37126705	-0.20841296	-0.32252088	-0.26349428	-0.10696642	-0.06992226	-0.19844612	-0.18683308	-0.08988156	0.19138509	-0.12502185	-0.16792004	0.08749407	-0.058744706	0.17840338	0.4496048	0.14665939	0.021524983	-0.46096632	-0.23423067	-0.26879972	-0.3167247	-0.20456174	0.021541478	-0.23592895	-0.18998854	-0.13020593	-0.13762867	-0.08656133	0.017555501	0.124911785	-0.16323997	0.13458885	-0.13148472	-0.26576516	-0.16136323	-0.010648403	-0.3273294	-0.4864115	-0.28481084	-0.36533448	-0.19119208	-0.1717816	-0.24903937	-0.23026714	-0.22608434	-0.22523777	-0.4108364	-0.08017445	0.17236519	0.09289149	0.18648127	-0.2615111	0.23022857	0.29204017	0.14577278	0.023315955	0.021288406	-0.03270574	-0.07779573	-0.03927525	-0.15006506	0.104334295	0.39080766	0.1719946	0.12506963	0.034701396	-0.10278097	-0.09550203	-0.06346948	-0.25938085	0.14946657	0.10108087	-0.43572715	-0.14182511	-0.007853688	0.018297035	-0.03041829	0.03165145	-0.08610074	0.08008532	0.060947523	0.2770832	0.31797907	0.33649218	-0.100287884	0.114454	-0.36911085	-0.21222208	-0.15704761	0.1589141	-0.17984341	-0.39359862	0.5430893	-0.1918504	0.21045882	-0.07809106	0.14831144	0.13658436	0.46294853	0.26547325	0.41191208	-0.1194731	-0.104472205	0.06185705	-0.05563979	-0.09810833	0.073433556	0.009820383	0.14460875	0.11873783	0.13409273	-0.08416106	0.081215814	0.12987784	0.14784746	-0.18878198	-0.26381895	-0.17180344	-0.41836545	-0.20894203	-0.36650476	-0.38168454	-0.19333968	-0.062047094	-0.18376827	-0.2990971	0.022050982	-0.29128805	0.112008505	0.06997013	-0.026407344	0.070527054	-0.10638432	0.036160726	0.007960957	-0.02635755	0.13646081	-0.18946299	0.111206375	-0.04995377	-0.13527127	-0.111822546	0.07307648	-0.12601691	0.19136573	-0.23344861	-0.0382227	-0.20651299	-0.23294918	-0.03421254	0.038550984	-0.06226905	-0.19474612	-0.22426867	-0.037930313	0.0035343785	0.054349136	0.20291688	-0.009189958	0.105115324	-0.125134	-0.22041725	0.06726847	0.044619866	0.20698555	0.12411766	0.24575797	0.045323	-0.05531532	0.00837868	0.124863125	-0.09865619	0.015373326	0.11155942	0.061566703	0.07574531	0.07277248	0.07507799	0.07297031	0.11189685	0.019150283	0.021555841	-0.027532099	0.015146426	-0.23838675	0.038979493	-0.11869247	-0.08544267	-0.17999932	0.0122246845	-0.22909237	0.47388944	0.32068262	-0.20829509	0.46432868	0.09277531	0.096042566	0.4347111	0.090666205	0.20658894	0.0117703555	-0.20981362	-0.18565382	-0.081856914	-0.116485536	0.00074144074	-0.08789179	-0.19695693	0.07227464	-0.038537245	0.012999711	0.13692084	0.2128691	-0.017854383	-0.19039333	-0.01649944	-0.15806788	-0.09498792	-0.19350749	-0.3167915	-0.32422364	-0.4706283	-0.36006522	-0.4404886	-0.38105252	-0.22890128	-0.22327763	-0.15850738	0.026066286	-0.394063	-0.10382405	-0.27790204	-0.018181274	0.010972206	-0.24897201	-0.110249914	0.07807462	-0.004003576	-0.10185209	-0.29363784	-0.2464386	-0.016899806	-0.10007093	-0.20710634	-0.0085158665	0.08277347	0.11154197	0.1317389	-0.0823874	-0.06713161	-0.04773853	-0.08988855	-0.18409653	-0.18646419	-0.37425515	-0.24822314	-0.34307903	-0.24300148	-0.1121135	0.095469765	-0.23632658	-0.10042123	-0.21321368	-0.1466303	-0.2829145	-0.107501075	-0.07691495	0.09887837	0.18028812	-0.21076989	-0.21611957	0.01050593	-0.034018874	0.107674554	0.07793878	0.1313935	0.15515703	0.12850212	0.15156764	0.06727895	0.1534585	-0.1813149	-0.07816457	-0.10136645	-0.12676501	-0.10739971	0.012273009	-0.15700808	-0.24208912	0.029695068	0.26900747	0.05742737	0.097229525	0.1018321	0.36364084	0.18287581	0.3712161	-0.13221431	-0.28922287	0.0049706576	-0.06083938	-0.30646595	-0.1002939	0.10546744	-0.018693108	0.13171057	0.03856388	-0.11887497	0.0002216269	0.2215699	0.04134021	-0.3217368	-0.2694339	-0.009382797	-0.18987457	-0.12117136	-0.4689667	-0.44386396	-0.32962137	-0.21323237	-0.3099222	-0.4413728	-0.19977719	-0.3229864	0.024115823	0.07638953	-0.102185644	0.030082572	0.059369437	0.24333493	-0.018956676	0.19166951	0.1721735	-0.012645959	0.26594347	0.0396277	-0.1866401	0.005964153	0.2915777	-0.07754563	0.2326872	-0.28599942	-0.13816643	-0.33608744	-0.33286098	-0.15368085	-0.08521094	-0.046411585	-0.28367007	-0.33147696	-0.026548674	-0.06805012	0.03885706	0.027764626	-0.22344157	-0.1537814	-0.19572411	-0.33026806	0.045833956	0.032241777	0.18678188	0.11166804	0.26238468	-0.023514472	0.0960722	0.025753325	0.26410064	0.014829355	0.1079504	0.18796703	0.08750228	0.07149603	0.14759645	0.11537503	0.1168035	0.19311014	0.32324603	-0.005050979	0.045795795	0.0022798588	-0.16621846	0.11215891	-0.0065168613	0.11605034	-0.07334563	0.08445594	-0.09102597	0.3505383	0.56419855	-0.17707126	0.4626482	0.16431998	-0.034213174	0.33094186	0.019055782	0.15949348	0.052060474	-0.33288944	-0.29069245	-0.08913201	-0.26711935	-0.15238464	-0.18282603	-0.3182367	-0.121595584	0.015595497	0.10900497	0.074775465	0.27240384	-0.062125564	-0.20419598	-0.0736815	-0.15709047	-0.18129711	-0.3388324	-0.20563021	0.0053761434	-0.38550335	-0.39941218	-0.44018698	-0.50253433	-0.28858903	-0.28310695	-0.3220366	-0.06827895	-0.4363558	-0.061394926	-0.12037497	0.15831544	-0.028078785	-0.2731808	0.044411805	0.1065861	0.06767083	0.016352864	-0.0051755304	-0.33353952	0.012113826	0.051388573	-0.17851391	0.23368752	0.047597043	0.27595475	0.11100254	-0.1423587	0.13495567	0.14717802	0.003843666	-0.109263115	-0.24766675	-0.373291	-0.36956897	-0.27806318	-0.123037264	-0.008795664	0.19982213	-0.21173927	-0.0629902	-0.13709418	-0.18678918	-0.30430403	-0.07924645	-0.22292118	0.061680514	0.15611182	-0.19562584	-0.36051506	-0.054201975	0.056345757	0.06432682	0.09160838	0.28589004	0.38462985	0.18112677	0.21658903	0.17905399	0.18094999	0.05067142	0.07711166	-0.054889075	-0.03323138	0.11182175	0.20485367	0.11090994	-0.0039430833	0.57372516	0.52392936	0.034052555	0.13058868	-0.09496397	0.12775992	0.13489482	-0.19932316	0.079663284	0.010965894	0.13865252	0.09368144	0.033861343	0.11171157	-0.18535073	-0.1433064	-0.39557704	-0.17908503	-0.26905668	-0.112809926	-0.3844863	-0.17097612	0.17121552	0.4180739	0.4663092	0.469107	0.32026985	0.46530154	0.08784146	-0.09971525	0.15045878	0.3030512	0.115142256	0.30903924	-0.21502061	-0.14725313	-0.27353716	-0.07642755	0.37170961	0.0735988	0.059049785	-0.14720514	-0.02203229	0.13636154	-0.018994974	-0.18273334	0.049655776	-0.2295211	-0.03742078	-0.13518149	0.11089163	0.17344917	-0.1527706	0.04228189	0.10685585	0.16972043	-0.2158119	-0.05356315	0.13815214	0.21096715	0.20954917	-0.23668924	-0.28231278	-0.27708426	-0.38787413	-0.2788529	0.3887456	0.4041288	-0.10883326	-0.21929689	-0.14287789	-0.25771436	-0.2536711	-0.026477015	-0.10919756	-0.110607974	-0.13297425	-0.31129298	-0.2593053	-0.16292709	-0.28935632	-0.20595755	-0.15848716	-0.19022198	-0.27205175	-0.10476508	0.06041384	-0.20981088	-0.08858216	-0.14161243	0.52263653	0.1406525	0.41028434	-0.23192795	0.18552285	0.31428158	0.4106354	-0.1074325	0.0998594	0.6857494	0.32003868	0.12338766	0.040805932	-0.014939132	0.010861813	0.10482571	0.67009115	0.1263408	0.28865707	-0.07953522	0.13576101	-0.023575323	0.20415775	0.11571828	0.023728818	0.20203158	0.00079325476	-0.23024836	-0.28237906	-0.17354314	-0.15296042	-0.24000122	-0.23034675	-0.10958737	-0.16444224	0.2544734	0.35648897	0.6155702	0.5362411	0.34496933	0.30439278	0.012321533	0.11823735	0.33860877	0.014617794	0.34542048	-0.08100484	0.29086232	-0.22590053	-0.22667669	-0.08947117	0.3164278	0.15434301	0.26745465	0.38290277	0.05342728	-0.013880266	0.03636785	-0.07738431	0.0682788	0.22673921	-0.16056207	-0.10157154	-0.24273625	-0.22349805	-0.12078107	-0.11859057	-0.08446105	0.35990098	-0.20714903	0.1719686	0.27987745	0.15881146	0.1426159	0.06999517	-0.25651756	-0.14336804	-0.35707265	-0.17575178	-0.12778683	0.17669222	-0.0897664	-0.30031225	-0.1141156	-0.20396514	0.5585295	0.15066604	-0.16338834	-0.19085974	-0.18162777	-0.21867937	-0.15578121	0.05314943	-0.3621634	-0.26832315	-0.218804	-0.12500371	0.0686757	0.052984484	0.35245776	0.60870683	-0.03513797	-0.15801795	0.1083045	0.20844425	0.6741163	0.50685406	0.44985637	0.51173586	0.5389476	0.67803943	-0.026930673	-0.065439746	0.0022011907	0.08278959	0.059805784	-0.023083176	-0.08680553	-0.28535867	-0.17820317	-0.05224005	0.023458317	-0.19098452	-0.1500298	0.05026474	-0.34182307	-0.09365651	0.26702902	0.009740577	0.33711487	-0.08866445	-0.06640121	-0.046303887	-0.15521504	-0.050546795	-0.02603582	0.0065451725	-0.08017762	0.012445284	0.006047647	0.015098168	0.08619799	0.38848713	0.19262813	-0.039201364	-0.19562426	0.046491496	0.1901113	0.17275497	-0.080333866	0.0171181	-0.2369346	-0.04810292	-0.19502366	0.025087684	-0.06707866	-0.19052508	-0.21909337	-0.13152294	-0.04198446	0.014214082	-0.19008198	-0.088450976	-0.1272086	0.016398223	-0.10951096	-0.24108446	-0.17154129	-0.21767962	-0.11500039	0.38147494	0.07734962	0.08481659	-0.10837629	-0.08877759	-0.1375753	-0.04148531	-0.08843995	0.04183599	-0.17218493	-0.0027904147	-0.4776375	-0.25015256	-0.28859735	-0.3364911	-0.27687502	-0.18799831	-0.3519633	-0.24920109	-0.26092795	-0.040028516	0.119320765	-0.19724491	-0.0564811	0.15044887	0.30382177	0.37135994	-0.3404855	-0.07333844	0.53648555	-0.022838166	0.49550542	0.09052652	0.27519384	0.8083578	0.5434923	0.48201764	0.5409747	0.2590311	0.5040039	0.6420427	-0.11441512	0.010416255	0.030792143	-0.02294401	-0.07857258	0.0026200432	-0.115734726	-0.07512413	0.10988638	-0.13250634	-0.2675139	-0.102090485	-0.16937315	0.04535008	0.1473787	-0.07472515	-0.034835316	-0.33877477	-0.11947067	0.14598656	0.06319335	0.048341583	-0.08887957	-0.175309	-0.3066578	-0.20520787	0.03992899	-0.06936297	-0.049485337	0.046000034	0.20491245	-0.10590146	0.16656551	0.1832434	0.35234225	0.36377606	0.3471211	0.21927258	0.2550231	-0.04898017	0.11942703	0.13643864	0.19025032	0.24912508	-0.17690586	-0.00449624	-0.059980165	-0.10402348	-0.15253416	-0.14574564	0.0006115795	0.24359852	-0.2570383	-0.21596572	-0.12236396	-0.14464153	-0.0073999437	-0.041317847	-0.3158039	-0.29479092	-0.27490506	-0.22817671	-0.1379483	-0.06260036	-0.010103107	-0.1179657	-0.08037033	-0.13217108	0.5131464	-0.11683789	0.028400233	-0.02429179	-0.08452709	-0.05356504	0.11064545	0.14669274	-0.15311645	-0.1726997	-0.14423515	-0.21674466	0.047777556	-0.053881142	0.45632926	0.45310086	0.03206607	-0.19435354	0.17727324	0.20843019	0.45926338	0.35273725	0.33504984	0.44486848	0.38934982	-0.19921166	0.057958063	-0.111257166	-0.009616364	0.0713701	-0.1124352	-0.096029	-0.36348772	-0.21141864	-0.10785804	0.023804577	-0.13560009	-0.020025982	-0.108303905	-0.13136187	0.041187175	0.48668653	0.11928656	0.25293592	0.082344756	0.071921736	0.09639874	-0.055396877	0.08052885	0.058119964	0.004435496	-0.0121899	0.008717836	0.16498585	0.0029997872	0.16384497	0.3162994	0.122050986	-0.1579353	-0.3353424	-0.12052949	0.19873269	0.026063567	0.11189656	0.10956487	-0.048242193	0.083921626	-0.014451378	0.017585896	0.0909634	-0.19144838	0.03384597	0.062395677	0.044811625	0.10583283	-0.2635142	0.1440883	0.077814795	0.21265851	-0.27583712	-0.3889304	-0.30402932	-0.17429394	-0.2552319	0.42722312	0.17240654	0.041827984	-0.26546705	-0.3228374	-0.20150824	-0.20380051	-0.15244499	-0.0071537457	-0.23916838	-0.28354418	-0.42221984	-0.39137885	-0.3914848	-0.58590734	-0.46310896	-0.3622321	-0.51791173	-0.3193286	-0.46935195	-0.19991325	0.104929	-0.16480397	-0.18510309	0.20588152	0.2771353	0.48744255	-0.3601587	0.043230794	0.6566696	0.11392146	0.3199128	-0.057816975	0.27317607	0.4955874	0.62850326	0.3876258	0.39058098	0.34108436	0.3897955	0.5057741	-0.028949697	0.17454542	0.05600707	0.11257243	-0.15095064	0.07507908	0.014997266	-0.15784898	0.06278282	-0.16483766	-0.3204018	0.007828074	0.005340525	0.10516787	-0.013544338	-0.0058568968	0.13095327	-0.054829765	0.15507945	0.31603462	0.2915981	0.22683811	0.22578663	0.018157113	-0.098570965	-0.09921149	0.13307914	-0.043570377	0.19265318	0.17022885	0.23982465	-0.062492	0.07941443	0.22810777	0.42320588	0.29134482	0.24652024	0.2553295	0.23824231	0.14501648	0.07307314	-0.04366762	0.30126324	0.25750566	-0.023977289	0.057835262	-0.15945975	-0.119664215	0.1385224	0.047885627	0.1700957	0.31379017	-0.20445684	0.041406386	0.030046703	0.15809925	0.1840195	0.14160602	-0.3211531	-0.08315619	-0.34030375	-0.19850324	-0.12128473	0.109942965	0.063838705	-0.13809381	-0.11204943	-0.29890928	0.6055802	-0.04239694	-0.087638624	-0.21831733	-0.18862158	-0.1702498	-0.09922218	0.056114774	-0.37729692	-0.37292194	-0.22033268	-0.43090364	0.09934316	-0.12375092	0.5268218	0.7262603	-0.094531715	-0.25828937	0.21690647	0.4045957	0.51019365	0.63352346	0.5158491	0.4079397	0.19438522	-0.17287676	-0.0760833	-0.10520633	-0.010049995	-0.018468581	-0.065790035	-0.08164141	-0.14142017	0.18300225	0.17360523	-0.122678585	-0.16172393	0.25474244	-0.23448505	-0.20273799	0.19779147	-0.062068347	0.0031914702	-0.23328792	-0.26396936	-0.0989807	-0.053921945	-0.09852961	-0.1852527	0.03414174	-0.197785	0.14169955	0.19873872	0.19554985	0.12746632	0.18277541	0.22152142	-0.0041589653	-0.29272774	-0.07664863	0.25600287	0.1559961	0.19691442	0.03669432	0.15550531	0.08988756	0.06785139	-0.14610197	0.041136283	-0.26928434	-0.23923627	-0.24464872	-0.15835255	0.0072854892	-0.35778815	-0.009670769	-0.13952577	-0.030050067	0.04508178	-0.31853536	-0.25667548	-0.047390286	-0.23897986	0.10045054	-0.1626221	0.15654622	-0.19298723	-0.33040595	-0.14748894	-0.06859608	-0.27247208	0.06904871	-0.30562934	-0.08052976	-0.28428823	-0.22451073	-0.4344031	-0.27103516	-0.31381506	-0.2716318	-0.42528066	-0.079549596	-0.26440287	-0.0045456947	0.22444199	-0.25334042	-0.050382197	-0.15166055	0.19140364	0.22551456	-0.24275322	-0.30315393	0.7322221	-0.23650602	0.6381214	-0.0887939	-0.17753436	0.49894276	0.6921941	0.54322994	0.55878997	0.4011419	0.38678437	0.21665333	-0.061778884	-0.168812	0.2297424	-0.024219342	0.1841843	-0.19673143	-0.11116566	0.065838784	-0.037042633	-0.053675402	0.12599514	0.120331205	0.04739613	0.26734576	0.42507157	0.08224882	0.09361651	-0.17250453	0.011453454	0.006872911	-0.1746732	-0.13493308	-0.09900755	-0.19770023	-0.124970555	-0.121161744	-0.12322105	0.20417924	-0.06280469	0.22190367	0.13990183	0.08784969	0.5068858	0.43836537	0.30270198	0.3376889	0.15053141	-0.03899229	0.36410186	0.10574151	0.089921184	0.2544353	0.35590568	0.15124497	-0.09498662	0.124766134	0.05856753	0.030860137	0.07005674	0.04194828	0.31026858	0.28051475	-0.16430631	-0.15879492	-0.20683645	-0.018135423	0.04924752	0.13555191	-0.3515547	-0.01022588	-0.086476624	-0.122247055	-0.06813119	-0.093282744	-0.0070159594	-0.088717625	0.07064951	-0.24072228	0.15303573	-0.21101195	0.14947435	0.026329746	-0.2116444	-0.10396005	0.14954002	0.19615841	-0.0748524	-0.055392526	-0.0032532841	-0.27694038	0.10231612	-0.13255736	0.23067968	0.21032754	0.102478676	-0.22285147	0.17012477	0.14865652	0.56980854	0.5898472	0.48289308	0.0485655	-0.12840654	-0.046258494	0.03609851	-0.06966691	-0.06392218	-0.25534147	-0.084432505	-0.34940565	0.12845807	0.09845029	-0.11265216	-0.2744614	0.17018054	-0.015288856	0.12680978	0.1759545	-0.16570984	0.13997442	-0.17550443	-0.27535456	-0.12960365	-0.1018686	-0.19919689	-0.15467492	-0.14695056	-0.14662808	0.016085979	0.0726877	0.1536518	0.1339059	0.3263646	0.15084076	-0.104813494	-0.25542542	-0.065141276	0.22392002	-0.018880393	0.09179767	0.13460115	0.007163977	0.15532094	0.010554979	-0.08267103	-0.05409015	-0.10347432	-0.26394194	-0.06452628	-0.13326968	-0.020859515	-0.10081415	-0.018202325	-0.10891823	-0.27697256	0.23651062	-0.10150784	-0.118611254	-0.049084697	-0.049842022	0.28696385	-0.09784336	0.21685913	0.046732016	-0.055684388	0.031011527	0.18778399	-0.025344323	0.123099566	-0.086805604	0.049840283	-0.18860057	-0.02063597	-0.31646398	-0.18711932	-0.05466426	-0.012021201	-0.17589323	-0.020913538	-0.14582065	0.15087834	0.26145497	-0.09619675	0.064199395	-0.0038966704	0.30868953	0.47093713	-0.11505163	-0.08897443	0.39283195	-0.3775065	0.33676898	-0.12515254	-0.12391666	0.43366787	0.3059401	0.74153066	0.49117678	0.53835326	0.53479326	0.206252	-0.25180218	-0.02868648	0.006325899	-0.18216439	-0.091166504	-0.1107683	-0.25619566	-0.2295563	-0.15805423	-0.22622505	-0.1195635	-0.012767603	-0.1421921	0.18346585	0.3313735	0.040027082	0.08079369	0.024553152	-0.2910446	-0.022462174	-0.08818676	-0.13929848	-0.1914411	-0.2527611	-0.21813262	-0.31060454	-0.124239355	-0.1337456	-0.24674517	-0.04336042	0.08467179	-0.31393224	0.45540717	0.38428771	0.15293871	0.36588797	0.1724124	-0.1461498	0.19410264	-0.15963744	0.011200569	0.276356	0.23704708	0.05900114	-0.12256309	0.1539961	-0.0050296145	0.09691739	0.041455343	-0.11270622	0.19026612	0.23502551	-0.046245262	-0.20655596	-0.19001438	-0.16869608	0.0666278	0.0476751	-0.26175866	-0.23864375	0.0014531725	-0.07171653	-0.24487855	-0.07584028	-0.012968963	0.036340244	0.10877818	0.01828991	0.3293712	-0.10153604	0.16302031	0.23903526	-0.075535186	0.11216924	0.19204567	-0.0060623623	0.075788826	0.042589087	0.100762956	-0.12905693	0.18296649	0.058777686	0.4356961	0.17819253	0.31037626	-0.08862261	0.13411836	0.15791072	0.7202623	0.7394067	0.029356292	-0.19299933	-0.17486551	-0.22264665	-0.06464464	-0.08438707	-0.21868059	-0.03008445	-0.21695033	0.23556712	0.18447854	0.095245905	0.009460731	0.33222923	-0.110700674	-0.14834143	0.05381584	-0.4486766	-0.045793887	-0.3780001	-0.48666042	-0.064456716	-0.1322293	-0.25432986	-0.42340383	0.03399571	-0.35497582	0.2901986	0.23595881	0.19354796	0.2761589	0.11029175	0.3107607	0.021701122	-0.1525385	0.09804351	0.17196877	0.26768434	0.09625031	-0.12657918	0.065559044	0.25701824	0.03206997	-0.09890221	-0.1313434	-0.10300152	-0.26161435	-0.29816324	-0.12978297	0.13728379	-0.239077	-0.15883026	-0.25859708	-0.13708253	0.05646902	-0.16094197	-0.050403047	-0.043339793	-0.07634498	0.2008717	-0.19654076	0.23533519	-0.008412933	-0.075685754	0.09446604	0.24111675	-0.052471835	0.041935563	-0.22646452	0.052514844	-0.16724941	-0.109387845	-0.28442374	-0.22923733	-0.1810726	-0.13743149	-0.2907097	-0.07602121	-0.14854892	0.07522799	0.22137703	-0.14422067	-0.028247239	-0.22751312	0.266155	0.14589474	-0.25564316	-0.3147454	0.45588693	-0.55169076	0.7510753	-0.108042695	-0.31536987	0.6669117	0.6469394	0.5621104	0.9055173	0.6340729	0.661501	0.14708312	-0.3631054	-0.22798821	0.094541065	-0.23353954	0.022544079	-0.3571123	-0.2762539	-0.17423826	-0.061001875	-0.21175335	0.029318206	0.20363025	-0.0114005655	0.2514252	0.32372665	0.16365628	0.22237217	-0.06994582	-0.341052	-0.18396305	-0.48802283	-0.44778848	-0.45985246	-0.47474748	-0.25420684	-0.37620237	-0.17208813	0.09064744	-0.3963549	0.15124881	-0.04436627	0.098281324	0.40012	0.26822546	0.23947883	0.33258682	0.19194406	-0.09524299	0.11795803	-0.17896728	0.08003009	0.13480629	0.09801021	0.23304324	-0.035085406	0.09901255	0.104062505	-0.013649125	0.0918664	0.06527236	0.19948971	0.01867659	-0.20225652	-0.46724853	-0.4107681	-0.34922197	-0.18625389	-0.12838915	-0.21427724	-0.24800712	-0.05674093	-0.2532039	-0.21305335	-0.39945024	-0.17134878	-0.045418773	-0.06266643	-0.0042005684	0.12471125	-0.279372	0.16366522	0.06531297	-0.058799446	0.09653912	0.26470286	0.16087602	0.0050622444	0.032162007	0.040254917	-0.19534075	-0.1011417	-0.047798052	0.27070153	0.06664239	0.047688853	-0.16851035	-0.007304903	0.009346507	0.7392139	-0.0003427333	-0.23767367	-0.22346395	-0.27104428	-0.06836983	-0.09348129	-0.22931324	-0.14711629	-0.21702282	0.115438506	0.15144074	0.092450365	-0.010322903	0.2665031	-0.05945736	-0.026472395	0.19217053	-0.45370468	0.22258738	-0.18672259	-0.36552632	0.04083495	-0.23849873	-0.3264951	-0.1761436	0.050981075	-0.310963	0.26507956	0.14447992	0.10995641	0.15724789	0.29259232	0.20783019	-0.07856727	-0.18757719	-0.03636788	0.014165382	0.09508138	-0.058370005	-0.1519416	0.05905366	0.23827694	-0.020391203	-0.016639726	-0.03709956	0.19476648	-0.22920875	-0.07254017	-0.08204661	0.061986927	-0.23327632	-0.23512001	-0.28236553	-0.056587137	0.22629078	-0.108947866	0.015338414	-0.09341743	-0.015568871	0.6154706	-0.04175519	0.47798914	0.1896583	-0.004805656	0.32847407	0.37776327	0.1317883	-0.009922676	-0.1392174	-0.04960038	-0.2513249	-0.007838001	-0.3314789	-0.2507415	-0.10014874	-0.20717925	-0.38551462	-0.2643528	-0.33895835	-0.1196568	0.13174118	-0.2763332	-0.16539887	0.104486465	0.5381233	0.2641323	-0.31243205	-0.030812792	0.31282604	-0.5199974	0.41919678	-0.063303486	-0.12395182	0.5822683	0.53576714	0.5918302	0.7072981	0.55334526	0.86183435	0.32932076	-0.42833582	-0.05674634	0.025153808	-0.3063968	-0.029355811	-0.3652232	-0.38231197	-0.17905827	0.07676539	-0.18140247	0.004539532	-0.013054749	-0.06134069	0.14991485	0.3008921	0.15062793	0.13751134	-0.045711733	-0.36606604	-0.10477375	-0.28074917	-0.34698015	-0.3783201	-0.34461796	-0.3896569	-0.47227058	0.02762802	0.08065777	-0.38948962	0.07280484	-0.09646968	-0.09043145	0.30139685	0.26523367	0.20143165	0.30000326	0.38297296	-0.08385062	0.09523843	-0.20953257	0.06730072	0.06648113	-0.043062456	0.15609457	-0.08217042	-0.053985287	0.04397905	0.090413645	0.026541065	-0.03348774	0.17177545	0.13451207	0.0035635042	-0.46905622	-0.31279647	-0.4733151	-0.21675329	-0.1391006	-0.19895622	-0.22288181	0.059748247	-0.2818711	-0.28597185	-0.3473533	-0.27749872	0.024582034	-0.21969567	0.13069169	0.4722646	0.036719613	0.2985664	0.14347638	-0.010405488	0.34354165	0.17254353	0.06747313	-0.10275311	0.03171332	0.06147441	-0.28008646	-0.26344147	0.20089728	0.5764543	0.23828033	0.11371225	-0.3057531	0.101257004	0.0864432	-0.030077886	-0.31536818	-0.23603405	-0.19225432	-0.18412772	-0.22355418	-0.2839229	-0.24530208	-0.12878564	0.15797609	0.061751984	0.10837557	-0.035928443	0.2437797	-0.17047934	-0.09861767	-0.012962509	-0.5219933	0.1410002	-0.38925108	-0.5262361	-0.1126128	-0.3241608	-0.38634413	-0.36464813	-0.085770994	-0.3709471	0.21680279	0.09009846	0.012190126	0.13435565	0.25425836	0.23455489	-0.081154734	-0.039052494	0.16889636	-0.0372524	0.25199348	-0.05393305	-0.17792907	-0.07912965	0.15397339	-0.13314661	-0.0208133	-0.29374352	0.093792774	-0.35729307	-0.25457183	-0.111555904	0.14900523	-0.11984353	-0.3911718	-0.4172677	-0.1447289	0.08939322	-0.008008825	0.07740317	-0.08239463	0.14405473	0.46320415	-0.118419446	0.37705195	0.22964098	0.20118722	0.2710572	0.39054593	0.15410812	0.1147421	0.011265602	0.18010361	-0.19747041	0.006403431	-0.16923983	-0.15121478	-0.049082875	-0.005165134	-0.19783312	-0.11717869	-0.20672436	0.017970102	0.2657661	-0.11434552	0.024622004	-0.036945317	0.43456095	0.16014458	-0.23237173	-0.025474126	0.2172682	-0.5179183	0.57218736	0.009616009	-0.13831656	0.80624574	0.45837986	0.5088304	0.75146836	0.39505154	0.78473955	0.32802704	-0.47614232	-0.12740906	-0.13370137	-0.29316407	-0.21943547	-0.2544858	-0.46522352	-0.27282587	-0.004939361	-0.2998457	-0.21010324	0.020299466	-0.14345391	0.09492929	0.22787017	0.12189027	0.067732714	-0.1986069	-0.56407017	-0.09061465	-0.41509774	-0.46800333	-0.5528895	-0.5881429	-0.52688956	-0.5490396	-0.13343993	-0.16400632	-0.53090256	-0.021368057	-0.16320397	0.02542711	0.27858713	0.11670134	0.11498513	0.26688555	0.36765045	-0.09086322	0.14460908	-0.25916132	0.1416175	0.18350382	-0.13776408	0.16694953	-0.21234155	0.0087396605	0.15925494	0.0947199	-0.07583872	-0.05391583	0.07482772	-0.03200074	-0.07076859	-0.55739933	-0.4384766	-0.57651645	-0.1897973	-0.18304321	-0.07771201	-0.41182604	0.06678054	-0.20695671	-0.21592799	-0.38089845	-0.17173037	0.09694456	-0.11035648	0.27747175	0.3767914	-0.0593577	0.28905013	0.26548728	0.21927762	0.36009288	0.34519884	0.20837931	0.14228866	0.13989218	0.15175788	-0.07418684	-0.16048485	0.19973515	0.4520916	0.102212705	0.16915098	-0.14715996	0.11076934	0.10896851	0.06321362	0.2671436	0.26634574	0.23190174	0.29807392	0.33887318	0.36515507	0.19434983	0.42605084	0.5083525	0.11715945	-0.18991357	0.5722163	-0.069868445	-0.13813655	-0.17839032	-0.01752468	0.0740474	-0.16367352	-0.12385641	0.011611659	0.2650935	0.118757576	0.0024841216	0.08075606	-0.019534627	0.27444667	0.022895483	0.35868588	-0.009736681	0.22127603	0.08806027	0.27026328	0.029416468	-0.10610205	0.100374274	0.024698088	0.08270367	-0.11395085	-0.093107246	-0.25986123	-0.12735277	-0.28469175	0.108164564	-0.093389176	-0.08580173	-0.16524018	-0.17443605	-0.0032802946	-0.118370324	0.05074218	-0.1620735	-0.06932348	0.15768094	-0.045965724	-0.102713406	0.07506072	0.007222752	-0.11219229	-0.11594716	0.17497046	-0.012400609	-0.14253536	0.023472255	0.117588855	-0.043944355	0.06594508	-0.124384396	0.11113821	-0.094946176	0.03945496	-0.08276345	0.16771325	-0.0033778045	0.011123363	-0.06893321	-0.011308521	-0.051097225	-0.10338717	0.17845877	-0.13754195	0.20649143	-0.12217348	0.07821029	-0.09754384	0.030552687	-0.14800213	0.07095059	-0.16506504	0.11639901	-0.15141147	-0.15386514	-0.04156292	-0.0003923026	0.20458034	-0.064575605	-0.14687932	-0.016436419	-0.120499946	0.18885092	-0.13793665	0.5389239	0.18344879	0.2947458	0.14453651	0.13717127	0.2933029	0.3779208	0.5147794	0.30444536	-0.026357042	-0.10747791	0.33018795	0.67101985	0.33323827	0.035444032	-0.12731083	-0.041694384	-0.14260955	-0.14866905	-0.1326084	-0.18019342	-0.083183065	0.05972148	0.13979238	-0.09874153	0.11826574	-0.008331031	0.2686098	0.13784555	0.20935759	0.5151958	0.38319087	-0.0025239107	0.2543967	0.27931333	-0.085230164	0.3120565	0.04948329	-0.0468682	0.24017806	0.14523582	-0.34608963	-0.33697233	-0.11189804	0.222942	0.19985323	-0.2654177	-0.22023845	0.0009170191	0.1903832	-0.09727692	-0.20082909	-0.2124568	-0.013792232	-0.119532496	-0.0141569795	-0.23971608	0.059374493	0.070574835	0.0071579227	0.067285225	-0.09275052	-0.02844304	0.017843043	-0.0024206701	-0.233563	-0.16139412	-0.0007396566	0.36458564	0.095152825	-0.16002001	0.008703193	-0.029748145	-0.10724003	0.11352795	0.066342175	-0.053066105	-0.03782725	0.035910487	-0.1417904	-0.09175943	-0.26205915	0.060357876	-0.06738004	0.07315228	-0.12289526	0.46530038	0.51937276	0.7594488	0.42320207	0.10134047	0.08844169	0.03499064	-0.002398945	0.25192586	0.15578319	0.12086203	0.13400012	0.3297284	0.40901744	0.1828589	0.26376772	0.042516876	0.48289055	0.56853807	0.524667	0.8111913	0.7539606	0.4155141	0.21114331	0.35425684	0.21886143	0.14734587	0.31885597	0.38038892	0.0433309	-0.057156418	0.19395077	-0.13802673	-0.1796747	0.107498385	-0.2678356	-0.050431635	-0.07121204	-0.35477573	-0.1432521	-0.13972683	-0.04434622	0.45450076	-0.08862319	0.5980095	0.31308812	0.23413244	0.2682416	0.05698555	0.6470887	0.6170919	0.25751534	-0.16068102	-0.12428888	-0.070908934	0.124013804	-0.1747582	-0.11142993	0.26602206	-0.2553418	-0.32335255	-0.3289179	-0.3585484	-0.29148608	-0.21569467	-0.14857394	-0.122606985	-0.3335884	-0.26937202	-0.41958937	-0.035406686	-0.282117	-0.33677423	-0.28907952	-0.26253054	-0.32441166	-0.15290979	-0.28973186	-0.07821121	-0.06218779	0.08462496	0.11959999	-0.06294298	0.12337789	-0.07603809	-0.056892212	-0.021789368	0.34124863	-0.06828118	-0.21766973	0.17726235	-0.22943631	-0.07785656	-0.15396424	-0.13958244	-0.0025081518	-0.2646723	-0.08978709	0.58529806	0.3495237	0.12520511	0.44850743	0.102262996	0.42346367	0.66772634	0.07792041	0.03911948	0.0839864	-0.22148672	0.07627483	0.12264782	0.105389096	-0.14970274	0.1079512	0.2604591	0.3088948	0.37489882	-0.03367158	0.35409144	0.44247532	0.45154446	0.4367455	0.52185833	0.40806872	0.17472297	0.056406192	0.43195498	0.20874676	0.16897817	0.017814878	-0.12101716	0.04110153	0.07923243	-0.049521357	-0.11813359	0.22845164	-0.20716932	0.15996957	-0.2208127	-0.34284973	0.16779383	-0.21730648	0.09561559	-0.12717542	-0.1831783	-0.030578878	-0.15912788	-0.19237542	-0.27306625	-0.02594374	-0.10551732	0.36733726	0.286762	0.44285023	0.13635774	0.10862845	-0.1866689	0.10727423	-0.39973074	-0.0034984488	-0.053905282	0.24229999	0.19166744	-0.17488618	-0.25905013	-0.4708496	-0.020658147	-0.025263524	-0.27876392	-0.56424934	-0.27817237	-0.35273945	-0.39708412	-0.31746376	-0.34346074	-0.48770556	-0.55577594	-0.41407022	-0.04109839	-0.43850568	-0.0055908165	0.20084547	-0.2638259	0.0074820244	-0.093400136	0.053589143	0.73064053	0.25958523	0.39889255	0.1872262	0.2574407	0.22414327	0.24030535	0.18455677	0.072712295	0.21587114	0.1686351	0.031291343	0.09353108	-0.003448509	0.2128617	0.053636022	0.10744369	0.1664706	-0.0575052	0.39972833	0.36326644	0.20159473	-0.19750494	0.08603258	-0.050758358	0.050282	0.22282533	0.022653082	0.053980082	-0.18617807	0.025375716	0.025486702	-0.22744843	0.032209806	-0.23097305	-0.09534525	-0.09443711	-0.22760153	-0.16605768	-0.09832712	0.1110744	-0.07098785	-0.051637083	0.12990205	0.17256635	-0.15546724	-0.23773652	0.038205028	0.21293233	0.08204819	-0.16388834	-0.11955604	0.03359454	0.017238006	0.030953478	-0.13610458	-0.28148904	-0.17746577	-0.16331492	-0.07644485	-0.092947915	-0.03896696	-0.12581341	-0.12259037	-0.2080972	-0.10100414	-0.15442818	-0.1469663	0.012794347	0.13418894	0.10765648	0.045268174	-0.031610403	-0.00764778	-0.13040379	0.08367021	-0.04896438	-0.11536479	0.13275556	0.011999326	-0.08776654	-0.0067238044	0.10111019	0.15885907	-0.14001565	-0.10270939	0.2565233	-0.052089322	0.18502796	-0.05593148	-0.1311737	-0.12537722	-0.11134895	-0.22437082	-0.25648174	-0.3084705	-0.036362443	0.273544	0.1290675	0.023550034	0.30069986	0.1087995	0.38769233	0.19239257	0.013756567	0.013149643	0.20682456	0.04084431	0.22391292	0.18859711	0.07853981	-0.0012726823	0.0027411778	0.08502964	0.011447928	0.033754706	-0.07983036	0.094588764	0.16820356	0.17265208	0.07362367	0.14598526	0.26694456	-0.2430044	-0.22184572	0.09351636	-0.05866216	0.13537402	0.0033655684	0.0030007847	-0.027774738	-0.23133524	-0.03363	-0.18559013	-0.03643879	-0.116732895	-0.14691094	-0.3780943	-0.21658401	0.0473207	-0.29288056	0.017865403	-0.049066566	-0.14223562	-0.12578502	-0.20383403	-0.25382748	-0.23788744	-0.09014463	-0.007979256	0.16195199	-0.037472818	0.20782225	0.03013928	-0.13690218	-0.0780916	0.10070806	-0.11931375	0.037965085	-0.17727187	0.13021135	0.1058902	-0.15550584	-0.0056586186	-0.2511142	-0.17175798	-0.16796881	-0.2159795	-0.16979212	-0.2630227	-0.14532022	-0.3333353	-0.16142784	-0.11418921	-0.09144285	-0.205721	-0.068944	0.12805654	-0.34238404	-0.13463473	-0.015561453	-0.08296912	0.2937317	0.09659417	0.0090227965	0.33963537	0.34216058	0.12832451	0.09369646	0.08391727	0.15553857	0.209896	0.09979521	0.032074135	0.14184283	0.031154146	0.30857885	-0.04549984	0.25366563	0.15852016	0.15085468	0.25509837	-0.009111834	0.44987616	0.44481784	0.26189327	-0.25969872	0.16109039	-0.08614996	0.09707555	0.33512506	0.11674675	0.22061391	-0.16470517	0.03220778	-0.045668077	-0.20267098	0.09704681	-0.28311414	-0.14050308	0.02339481	-0.36866435	-0.27046672	-0.2489216	0.11265588	-0.028789911	-0.18941762	0.12970369	0.15868755	-0.1438551	-0.10200858	0.100228265	0.3614279	0.19152813	-0.12525557	-0.18632382	-0.022128448	-0.05846397	-0.003170125	-0.08139714	-0.24939252	-0.031621356	-0.18247104	-0.12994461	-0.12342223	-0.16559435	-0.15854329	-0.0741422	-0.052387126	0.044983786	-0.12321838	-0.28444052	-0.16822882	0.11999498	-0.0029659234	-0.0816518	-0.010175675	-0.0921087	-0.18876952	0.020838503	-0.039034694	0.05780573	0.15035884	0.08623731	-0.020153323	-0.013016562	0.23720217	0.15837432	-0.03739913	-0.12563859	0.31630883	-0.09117012	0.05037307	0.11966083	-0.10823431	-0.23839067	-0.050655432	-0.22964793	-0.24337229	-0.28571633	-0.010630781	0.35526872	0.25046432	-0.0012039894	0.3676361	-0.23057191	0.6580725	0.29898545	-0.025148557	-0.01504939	0.17442364	-0.2945167	0.19747049	0.09288209	0.086163506	-0.07309092	0.03671961	0.10238392	-0.01893535	0.07333574	0.01578504	0.26840058	0.29585344	0.2751351	0.113117106	0.15571302	0.23723976	-0.20820099	-0.44814518	0.1371462	-0.068244494	0.16382958	-0.023176193	0.09182058	0.04757487	-0.14045899	0.13645868	-0.094115734	0.12099545	-0.053593248	-0.038096964	-0.22341104	-0.09496947	0.10520291	-0.23955122	-0.015311882	0.0881927	-0.13255142	0.0007938945	-0.29991037	-0.32151854	-0.29565504	-0.1702011	-0.07947886	0.24062487	0.024019763	0.28901073	0.17925988	0.008819064	-0.021517916	-0.057001673	-0.265478	0.041288115	-0.12524933	0.23238972	0.37157872	-0.05858625	-0.0005970222	-0.23686254	-0.015080388	-0.11756891	-0.20894448	-0.16103168	-0.16186309	-0.17471768	-0.27727762	-0.19562335	-0.028911376	-0.122590095	-0.31679887	-0.07424565	0.30490878	-0.3644384	-0.072709695	-5.8676666e-05	0.12611535	0.23806447	0.13730091	0.14214574	0.5581101	0.14126694	0.19576283	0.056947503	0.0008292288	0.3523994	0.18362412	0.0870063	0.2820256	0.14026628	0.28487948	0.09836051	0.20376974	0.17210606	0.3559971	0.5016002	0.62913686	0.7300042	0.64131665	0.4632628	0.45509583	0.42443624	0.4355777	0.1578453	0.35978642	0.43514845	0.21456675	0.08207283	0.40206584	-0.046423465	-0.031931307	0.15784846	-0.094083	-0.0600398	-0.018445726	-0.31319118	-0.10271416	-0.16452692	-0.06471774	0.55661684	-0.12698397	0.44601285	0.11894045	0.2893831	0.35967264	-0.03662633	0.57879645	0.5328247	0.26354504	-0.1613715	-0.19556221	-0.15255891	-0.021107076	-0.1524704	0.0027949535	0.35795608	-0.11139323	-0.30277425	-0.34585506	-0.37597507	-0.26263064	-0.16653194	-0.071414754	-0.2362121	-0.20086399	-0.30587375	-0.4045835	-0.15716548	-0.30027425	-0.3909586	-0.3377398	-0.31529638	-0.40387055	-0.16850218	-0.2903554	0.07943207	-0.13041528	0.1525837	0.1397223	0.016706912	0.11004686	-0.1681987	-0.15810119	0.038923014	0.24423435	0.026484001	-0.24634102	0.24410447	-0.11713891	0.015950365	-0.11636041	-0.03330067	0.094499715	-0.1033666	0.0057621035	0.5645754	0.26434046	0.32732126	0.4187927	0.29338506	0.3254015	0.7413715	0.3167634	0.14535807	0.14180276	-0.14217784	-0.017404243	0.066626385	0.14649	0.056973606	0.17385599	0.17477101	0.10732209	0.31218302	-0.013780815	0.24930507	0.35187328	0.3086824	0.40627366	0.4299586	0.35560495	0.3542093	0.26055318	0.4449558	0.4112975	0.17657828	0.093847185	-0.043344624	0.21178247	0.28318235	0.17144848	0.17051503	0.28911644	-0.06123892	0.20516902	-0.054958444	-0.24156669	0.1912495	-0.0915817	-0.055400178	-0.14311014	-0.23859702	-0.096295506	-0.2514463	-0.2463385	-0.30054158	0.016858155	-0.28379777	0.17840885	0.25568488	0.29541957	-0.04852741	0.047095317	-0.35924476	-0.0698553	-0.5015597	-0.12789436	0.0105135245	0.012212718	-0.052334115	-0.2594604	-0.42739812	-0.52718204	0.07570284	0.049469993	-0.11667859	-0.5729895	-0.31478107	-0.34045944	-0.24811938	-0.20141532	-0.40125683	-0.529192	-0.5759481	-0.44090226	-0.20134455	-0.3942855	0.06693945	0.2070609	-0.28795552	-0.14152752	-0.109350376	-0.036424126	0.19402747	0.17563474	0.1904063	-0.0604235	0.10663035	0.0097718695	0.08479356	0.23202184	-0.05870392	-0.0046116807	-0.18719925	0.09296488	0.11570274	0.049354743	0.31788102	0.38203248	0.55351484	0.54710543	0.20817916	0.5526934	0.5127503	0.38424277	0.14901024	0.31368122	0.3479863	0.21177727	0.21821341	0.557349	0.1064401	0.13662684	0.27372748	0.060204193	-0.17741705	-0.121637374	-0.1702078	-0.000939679	-0.025006572	-0.050974034	0.33801714	-0.31984484	0.1869729	-0.17422126	0.36816138	-0.046323538	-0.024775732	0.5364581	0.29689145	0.23864931	-0.21273139	-0.21503703	-0.25362992	-0.20863971	-0.1529755	-0.18737212	0.3095906	-0.11229806	-0.36756814	-0.25438988	-0.3254455	-0.18521948	-0.121604495	-0.24907573	-0.25039583	0.006995036	-0.13326013	-0.22205557	0.0004788555	-0.022231607	-0.1763171	-0.17275639	-0.09766982	-0.17096594	0.24248847	0.0024895307	-0.12635338	-0.12532847	0.14920208	-0.004118137	-0.087016456	-0.076277226	-0.07689939	-0.23195016	-0.0043089376	0.15013297	0.030413762	0.04092777	0.08286493	-0.14084113	-0.083422475	-0.093087815	-0.1481684	-0.055708136	-0.22232854	-0.08465592	0.42111492	-0.061350364	0.39308944	0.27197874	0.43168598	0.2698584	0.48933336	0.57373595	0.0026044685	0.17009526	0.038835995	-0.09561251	-0.19098827	-0.029098576	-0.002837129	-0.10536623	-0.07954721	-0.07429583	0.13935165	-0.20536345	0.017093094	0.15326151	0.037644304	0.1826784	0.33340064	0.43407914	0.35168263	0.345075	0.3625949	0.2628512	0.28173643	-0.03298446	-0.06970007	0.14899637	0.23453929	0.12781818	-0.048486404	0.26510355	-0.10870116	-0.07637518	0.04398638	-0.10885966	0.23933211	-0.04464281	0.009118084	-0.09551711	-0.24039178	-0.16506645	-0.14442036	-0.20142263	-0.21845323	0.030833088	-0.4385652	0.0025930358	0.3261236	0.2813139	-0.20441759	0.18764031	-0.31862283	-0.15168911	-0.47678512	-0.2504065	0.023595246	-0.14873464	-0.20949256	-0.30666605	-0.09026111	-0.4264511	-0.19236986	0.02053228	-0.09162993	-0.47494262	-0.32005832	-0.3779857	-0.08889997	-0.066908725	-0.2567073	-0.25987026	-0.30685797	-0.06994849	-0.022339463	-0.39600945	-0.06019179	0.04345407	-0.22478415	-0.016636012	-0.22585768	-0.28615248	0.48791203	0.17178267	0.17589666	0.3720147	0.03717756	0.20672384	0.16613382	-0.058155604	-0.10327765	0.042910043	0.16606979	-0.14188315	0.018824536	0.16421375	0.035654742	0.13399872	0.10080186	0.07360262	0.2814935	0.14546506	0.058307055	-0.0025377753	0.17470671	-0.09437385	0.26273853	-0.10042999	0.16822675	0.03043272	-0.12928645	0.053260062	-0.048903003	-0.20218025	-0.22199206	-0.16956294	-0.24763204	-0.10653896	0.12117046	0.09491087	-0.07060104	0.122869484	0.06801555	0.10377313	-0.12683743	-0.19719078	0.13580686	0.0831369	0.10748466	-0.07797258	-0.05758647	-0.044290837	-0.03265951	-0.18731977	-0.21962084	0.106297955	-0.0660521	-0.18430197	-0.14026645	-0.17201683	-0.12169724	-0.055445638	-0.20264743	-0.117133714	-0.14109822	-0.20642094	-0.1964428	0.052655082	-0.123056225	-0.1329238	-0.18347326	-0.08241561	-0.098812684	-0.038773406	-0.12388549	-0.1656038	-0.14174883	-0.050660644	0.06972913	-0.055643752	0.025891779	-0.016247774	-0.02892834	0.0423853	0.19585446	-0.1147342	0.114306055	0.11090345	-0.1579018	-0.14219946	-0.27518257	-0.25835177	-0.19765365	-0.2953249	-0.036760744	0.16814391	0.0019531025	0.35229897	0.21392128	0.057880905	0.09688219	0.22287661	0.24236456	0.601548	0.7850177	0.4395569	0.076186	0.09693545	0.015054189	0.15333004	-0.034008924	0.011750533	-0.094346665	0.23301886	0.09650713	0.12970282	0.11764257	0.103604466	0.16201502	0.2469645	0.17681438	0.09175251	0.24814372	0.19365798	0.25063652	0.10288465	0.1382489	-0.00032335665	0.052729074	0.026237378	0.24690795	0.24503206	0.25757372	0.18108492	0.14094813	-0.07636568	-0.12101216	0.08959833	-0.06771199	0.031258985	-0.09021313	-0.08652778	-0.019564789	-0.07048207	-0.1662163	-0.14078912	0.25691047	-0.16033167	0.09243612	0.11764758	0.21479966	0.16565244	0.018234903	-0.006829769	0.118997976	-0.090504475	0.0072237584	0.075914495	0.12008469	-0.0283966	-0.3024549	-0.020230914	-0.29450616	-0.1819443	-0.04946966	-0.14159147	-0.24198054	-0.22918354	-0.25494108	-0.15005536	0.017466778	-0.14157155	-0.19716395	-0.19835584	-0.0666909	0.12123665	-0.121901505	-0.22196771	0.10383717	-0.2144488	0.07171391	0.17033325	0.07149243	0.16292192	0.35704282	0.30372262	0.20165892	0.12199606	0.20332137	0.19869043	0.10985327	-0.11041043	0.06605087	-0.10783368	-0.03129323	0.040020835	-0.06758799	0.13276504	-0.09038097	-0.03345367	0.16393568	0.042381518	0.08308805	-0.044389002	0.15214665	-0.12975048	0.045939624	-0.17064707	0.09705278	0.025024442	-0.1375751	-0.030719541	-0.11115694	-0.063628696	0.036828373	0.025021737	-0.1562866	0.056245413	0.08059729	0.11079369	-0.040067878	0.055314638	-0.0011282708	-0.05273553	-0.12875822	-0.18070516	0.04482345	0.038628697	-0.14137	0.05268085	-0.021432707	0.011288895	0.014506938	-0.19196987	-0.21902229	-0.07188074	0.011958811	-0.05791908	-0.079738565	0.0034954078	0.008820654	-0.040845178	-0.17817807	-0.28733113	-0.080091566	0.041755892	0.03087039	-0.00050306926	0.07881237	0.065612584	-0.023378609	0.035859767	0.01056789	0.027236039	-0.091615364	-0.040689386	0.014816084	0.06507496	-0.10783571	-0.13445322	-0.13544828	0.054748245	-0.16963413	-0.08293352	0.014199898	-0.028056653	0.069935955	-0.06276702	-0.22104031	-0.17907193	-0.11186323	-0.08932071	-0.11434157	-0.19335085	-0.08508078	0.112892054	0.18598326	0.15194663	0.23045035	0.28939095	0.082160436	0.1503952	0.18868956	0.2630595	0.49061766	0.63289917	0.12122287	0.11899345	0.12877516	0.25686312	0.17401771	0.1566031	0.1607151	0.07703921	-0.14755394	-0.106466174	-0.01880077	-0.05681534	0.103796214	0.20770675	0.08996191	-0.017898474	0.15313283	0.06355918	0.07927324	0.028945433	0.09395438	0.09362429	0.058457114	-0.1290038	0.035849568	0.16332257	-0.10072591	-0.059628088	-0.0077346005	-0.22209176	-0.095792584	-0.08787271	-0.20014948	-0.05481079	-0.15278502	0.115394816	-0.16507332	-0.10912236	-0.10603773	0.04240971	0.102794595	-0.095066875	-0.012095209	-0.08721926	0.019324783	-0.094187304	-0.1791329	-0.08461722	0.09539197	0.041032337	0.0068567586	0.010183234	-0.06816274	-0.16089751	-0.2875664	-0.031140234	-0.19977534	-0.31091705	-0.119276665	0.023762673	-0.10959565	-0.27452588	-0.10612594	-0.20917113	-0.14253955	-0.036342446	-0.06337475	-0.03683592	0.058775745	-0.106004715	-0.16032085	-0.36366954	-0.13835162	-0.18227525	-0.032143787	0.011289194	-0.14753753	0.19420941	0.028744768	0.29155383	0.28326473	0.15541373	-0.23573473	-0.22461742	-0.03932406	0.0065996354	-0.17793763	-0.2189495	-0.12633924	0.015573241	0.1865611	0.10125741	-0.11830686	0.055722788	-0.025408952	0.3310911	0.34805045	0.044715945	0.07923907	-0.04774924	0.0058523756	0.0037806244	0.07537019	0.06910107	-0.23663709	0.098242015	0.06548642	-0.2810589	0.1387774	0.00080642133	0.041422747	0.28424805	0.06807372	-0.022277571	-0.029003369	-0.09557215	-0.052082475	0.08997921	-0.106504075	0.06784713	-0.17024669	0.32062873	-0.19269317	-0.17087586	-0.034878734	-0.06703903	0.010708613	-0.14043798	-0.18235357	0.103089035	-0.12809649	-0.041842494	0.04100643	0.06993415	-0.13792926	-0.055916652	0.03119867	-0.030751904	0.066081785	0.054897357	0.27522385	0.03527015	-0.20018056	-0.004279218	-0.05312985	-0.11342771	-0.12700178	-0.10266844	-0.04631423	0.0070442944	0.11482254	-0.08175808	0.09112088	-0.36304814	0.028282693	-0.16101158	-0.124833964	0.14870566	0.046874132	0.2787822	-0.2373098	-0.123917684	-0.057580955	-0.313021	-0.24653299	-0.34508413	-0.2330156	-0.183138	0.18871869	0.025778864	0.19912241	0.28118882	0.2483051	0.24202918	0.083519824	0.27291462	0.091903344	0.20883551	0.23522623	0.26579678	0.26423138	-0.09717396	0.014203227	0.18400323	-0.021005334	-0.25479105	0.0604258	-0.056409385	-0.20307463	-0.19496086	-0.06760713	-0.14331618	0.11262637	0.17812324	-0.085167274	0.12961873	0.030414047	0.31643194	-0.043086566	0.4907942	-0.062777825	-0.13745047	-0.07757881	-0.103255525	0.08583375	-0.036466666	0.12529977	0.19455115	0.054438297	-0.1523994	-0.15001224	-0.033249233	-0.16784027	-0.18047082	0.037255194	0.06856886	-0.057049997	0.047872804	-0.19281794	-0.13671082	-0.15111676	-0.16997655	-0.1905747	0.08648345	-0.03338463	0.09464189	0.031661242	0.10361836	-0.16825935	-0.075016506	0.06623072	-0.118170924	0.027632719	-0.100554086	-0.23310153	-0.09539725	-0.19068791	0.05791079	0.19993338	-0.2879818	0.064830184	-0.031139858	-0.1292942	0.12992817	-0.06628535	-0.12470109	-0.105108336	-0.018827664	-0.14460817	-0.13760902	-0.1887446	-0.10460843	-0.123055	0.13345014	0.1051936	-0.07614415	0.56814545	0.49143437	0.17194393	0.67115813	0.22366725	0.078974254	-0.11042909	-0.33210924	-0.1946788	-0.37260774	-0.42838007	-0.26152873	0.15010254	-0.13746482	-0.33919486	-0.18509522	-0.45420325	0.28664178	0.23094507	0.5170752	0.03252129	-0.047778025	-0.29557845	-0.23046777	-0.32251337	-0.38544437	-0.17057489	-0.16724138	0.07085765	-0.10807231	0.07606621	-0.18124072	0.10541019	0.10033063	-0.15410201	-0.0076202867	-0.12042354	-0.12392098	-0.469566	0.07281658	-0.23031661	-0.0010834931	-0.274497	-0.2805068	0.079133	-0.063010395	0.12249211	0.26928777	-0.056481816	-0.16852899	-0.49814686	0.17656986	0.15302773	-0.07544758	0.20548944	0.07351461	-0.20988041	0.09330014	-0.15550339	-0.19397165	-0.0058498653	0.058201563	0.015789144	-0.051979765	-0.14897904	-0.04869246	-0.13898885	-0.23670036	-0.39441824	-0.31563383	0.27260298	0.055616233	-0.048280336	-0.37199527	0.11560178	-0.11942661	0.017777264	-0.3179863	0.03026986	-0.31760472	0.17209764	-0.08271937	-0.3646138	0.0213282	0.1014563	0.24319857	0.15344691	0.008443704	0.119456634	-0.15412486	-0.030394286	0.06024581	0.12465548	0.05271872	-0.002615539	0.020182952	-0.14226508	-0.12053823	0.18751808	0.24460699	0.2718807	0.56915224	0.45691615	0.4950404	0.5653534	0.5750738	0.45684412	0.2064989	-0.21615653	-0.30179897	-0.39369226	-0.3627835	-0.3001613	-0.33612096	0.09970749	-0.04309327	-0.5116004	-0.08394161	-0.2767137	0.22450781	-0.14138879	0.35590264	0.58520347	0.2995248	-0.2930553	0.12319166	0.046915498	-0.44513428	0.08177325	0.017327653	-0.30697885	-0.04749261	-0.10020852	-0.40238228	-0.13752423	-0.10932984	0.35892054	0.12307501	-0.04890567	-0.044872545	0.18653674	-0.10325468	0.055763464	-0.2551198	-0.5287405	-0.10117745	0.11002999	-0.1516055	0.031777065	0.15416786	0.21233694	-0.018565973	-0.09957201	-0.06340792	0.17364909	0.08862618	-0.1518606	-0.030783696	-0.21262155	-0.34756032	0.11216608	0.023185393	-0.09671423	0.100073144	-0.20411153	-0.14652745	0.15638754	-0.02997997	0.076895975	-0.1949906	-0.015344014	-0.147834	-0.14756846	-0.14421225	0.072725184	-0.023106221	0.12728256	0.10365596	0.5802328	0.2444677	0.7363009	0.2628102	0.2131467	-0.076847866	-0.20606542	-0.12161048	-0.17792828	-0.14945674	0.0051088384	0.29233	0.02059017	-0.10124366	0.056566972	-0.21367976	0.39229357	0.34882525	0.57332367	0.23460492	0.2048266	-0.14818281	0.061291654	-0.19030948	-0.33384156	0.10493422	-0.11008632	-0.03166728	-0.1231443	-0.13396595	-0.25366354	-0.044654567	0.007962762	-0.0043072635	-0.052289944	-0.012763122	-0.07141351	-0.28056	0.118470766	-0.2557262	0.16768569	-0.07659806	-0.11886217	-0.019854767	-0.17832503	-0.0976226	0.16099043	-0.11239812	-0.069249064	-0.15631151	0.119974025	-0.05455228	-0.33556116	-0.016885903	-0.05247101	-0.142175	-0.028382855	-0.16619158	-0.26493314	-0.16308802	-0.24928832	-0.015040114	-0.24083771	-0.29210553	-0.22177221	-0.28415465	-0.30277964	-0.40524328	-0.28905395	0.24753508	-0.029634206	0.01509886	-0.26069847	0.16463967	0.034378506	-0.12113653	-0.27337527	0.048056666	-0.2123774	0.13140146	-0.27580222	-0.14503004	-0.0019234208	0.14315589	0.15134862	0.16699089	0.2430403	0.17536733	0.00073415576	0.12570865	0.21477807	0.34898236	0.2201136	-0.056464233	0.08481274	0.16200781	-0.08244705	0.48746493	0.33783728	0.10183881	0.35789895	0.36068848	0.6796749	0.5757768	0.60062116	0.5732337	0.24194542	-0.096699	-0.080404505	-0.18378626	-0.114786156	-0.06952344	-0.09818042	0.15903582	-0.04295477	-0.17683357	0.05399316	-0.0673557	0.41192988	0.012218498	0.40527335	0.47923484	0.53579056	-0.020935994	0.34736773	0.19500719	-0.059861105	0.28250733	0.084340036	-0.20689854	-0.13484013	0.1725373	-0.23007165	-0.07434723	-0.09109958	0.01124015	0.12425287	-0.13950491	-0.3152731	-0.1083292	-0.09296514	-0.080111146	-0.13549669	-0.35333717	0.0296857	0.058939494	-0.2819377	-0.16727544	0.11258227	-0.008512716	-0.08371735	-0.153495	-0.069196224	0.1125099	-0.02050906	-0.3019948	-0.30371115	-0.020090321	-0.26217863	-0.010753309	-0.15766756	-0.30823186	-0.12814079	-0.2151988	-0.1585563	-0.09762627	-0.30343312	-0.24637343	-0.36517268	0.06925092	-0.23855719	0.015695117	0.00895198	-0.075911194	-0.012273261	0.13768366	0.17283875	0.44617113	0.5705168	0.4345241	0.41689157	-0.1995666	-0.440741	-0.14776248	-0.21500522	-0.23728035	0.012645347	0.16356571	-0.13304208	-0.29540414	-0.033537153	-0.24726877	0.47377917	0.4572922	0.40035424	0.3432785	-0.012961917	-0.22475775	0.010965238	-0.11880907	-0.25737652	-0.23005182	-0.19888444	-0.05536924	-0.15768838	0.0049217665	-0.029807106	-0.017199455	0.29575416	-0.015923344	0.09169884	-0.037856802	-0.06759492	-0.29133534	0.14284666	-0.06865981	0.11380782	-0.07722883	-0.11446033	-0.12304258	-0.17873436	0.023629565	0.072546154	-0.033744827	-0.036689274	-0.23385438	0.18539159	0.07253508	-0.14648715	0.18772626	0.12815677	-0.060314987	-0.056234833	0.06294037	-0.28388625	0.06925807	-0.14407162	0.27080768	-0.06917783	-0.20104812	-0.09440078	-0.15729441	-0.33979243	-0.31554046	-0.24505022	0.19482416	0.16208415	0.027189966	-0.22566736	0.19387923	-0.21810763	0.09963058	-0.10113821	-0.28392115	-0.20787686	0.009046979	-0.09782228	-0.17766263	-0.06395	-0.035414346	-0.09580003	0.10651781	0.13521151	0.1452605	-0.10706361	0.03988988	0.3903553	-0.0044219177	0.25102782	-0.1562965	0.1493761	-0.0076394314	-0.09158436	0.14778796	0.0058677886	0.032162074	0.5070035	0.45699647	0.49318773	0.21933092	0.7203579	0.6708031	0.39181313	-0.2475627	-0.0760243	-0.37475717	-0.292881	-0.21128581	-0.26767182	0.12616275	-0.11355182	-0.2177171	-0.047480408	-0.24442056	0.37920067	-0.17621864	0.5295929	0.2394734	0.23802075	-0.15413292	0.08650751	0.030727578	-0.17759147	-0.013241167	-0.08396516	-0.24906111	-0.39202136	-0.1550285	-0.2529685	-0.06587207	-0.13532504	0.049519338	0.04204557	-0.07910385	-0.108375646	-0.17271085	-0.40091914	-0.11015218	-0.32050866	-0.4776161	-0.11255186	-0.049463842	-0.26537323	0.024631191	-0.068555534	0.0015292999	-0.28706655	-0.315687	-0.2377454	0.04138492	-0.039230928	-0.42481846	-0.050854247	-0.11089543	-0.21054779	0.008978522	-0.20833747	-0.12865533	0.021479635	-0.29084837	-0.14332028	-0.08598962	-0.20080513	-0.12265685	-0.24002188	-0.10069397	-0.15719797	-0.061189055	-0.17622474	-0.10816554	0.122900166	0.04942082	0.07798715	0.16070707	0.16693683	0.1767143	-0.06519565	-0.14983572	-0.10155343	-0.14126171	-0.083509296	0.035936836	0.096191354	0.004368887	-0.11733572	0.059693478	-0.106207654	0.33132392	0.42647845	0.1811524	0.35342738	0.056590453	-0.09941461	0.046484284	0.23405527	-0.065899976	-0.06892238	0.029421525	-0.1685019	-0.3404293	0.07890686	0.22164169	0.17767207	0.4214705	-0.066216126	0.062081914	0.045412548	-0.050208047	-0.039233163	-0.04487856	-0.045465466	0.18554026	-0.037598625	0.10846601	-0.3549221	-0.03845069	0.0139113795	-0.17112303	-0.24032563	-0.06941025	-0.121805236	0.04354022	-0.062945805	-0.13841704	0.11798939	-0.019574016	0.02853152	-0.15463836	-0.039030395	-0.25913474	0.089306936	-0.11282003	0.24150544	-0.22821255	-0.15605919	-0.20609498	-0.14646506	-0.2706608	-0.08030895	0.056205377	-0.11109588	0.14653705	-0.13574547	-0.19756503	0.027962422	-0.13339594	0.1583843	0.0021139916	-0.15538502	0.003522899	-0.0043658367	-0.011059406	-0.18614002	-0.13863964	-0.01002835	-0.3687249	0.00038546367	0.077481486	-0.07268234	-0.14636722	-0.03883607	0.13057956	-0.03094696	-0.024413642	-0.05425216	-0.14518878	0.013856592	-0.1735713	0.06867112	0.035255563	0.043662164	0.55001694	0.49591625	0.118193515	-0.24253902	0.22868001	0.3914848	0.1923415	0.007582646	0.23137617	-0.2133244	-0.16598581	-0.042760197	-0.15493248	0.13344365	-0.04981521	-0.122723386	0.033996414	-0.13705026	0.38869178	-0.0307428	0.39788368	-0.16887212	-0.07177016	-0.016752161	0.130485	-0.050636966	0.13451263	0.038455904	-0.13151994	-0.21377902	-0.42120484	-0.19883122	0.15042041	0.22205476	0.118288785	-0.2627265	-0.08065354	0.2738206	0.15548004	-0.13424231	-0.3620552	-0.15034737	-0.09042906	-0.25460258	0.02316627	0.109372996	-0.3353839	0.14205801	0.000893128	-0.14294419	-0.11405989	-0.2876291	-0.19574888	-0.14882584	-0.3333787	-0.3808099	-0.10510339	-0.11142914	-0.2187754	-0.29453996	-0.25774717	-0.18000475	-0.07281665	-0.12711509	0.21450803	-0.22688098	-0.17557347	-0.12799561	-0.17881383	-0.20651561	-0.09078939	-0.12434233	0.12499488	-0.23134887	0.35436532	0.2796368	0.32048926	0.1189721	0.08138748	-0.21075001	-0.460276	-0.035160635	-0.36456165	-0.38403413	-0.03678602	0.33469403	-0.011940206	-0.292968	0.068052396	-0.28522718	0.5463706	0.3049134	0.63325447	0.30547538	0.14539786	-0.01436186	0.15581435	-0.16634177	-0.20022365	0.018877113	-0.037000928	0.007564699	-0.16021392	-0.07620431	-0.15380691	-0.029702196	-0.09436732	-0.0019628366	-0.057653513	-0.16067125	-0.25519162	-0.32651514	0.12009587	-0.23599555	0.06656944	-0.2195537	-0.22701335	0.11659912	-0.12671983	-0.030252494	0.13086294	0.00037551546	-0.1043801	-0.31668627	0.23127238	0.06628726	-0.15704511	0.08296062	0.14027497	-0.1672409	0.09996179	-0.10555416	-0.07963748	-0.082774304	-0.06347879	0.03678592	-0.024777368	-0.18168528	-0.06996167	-0.19245961	-0.2291392	-0.2587299	-0.22140227	0.32636046	-0.077627696	0.10465858	-0.36903313	0.20620346	-0.13675205	0.05047786	-0.29243553	0.018284183	-0.37582207	0.28271854	-0.14737007	-0.29694062	0.13891232	0.16611606	0.24729158	0.23509498	0.14114402	0.25434497	-0.105254315	0.06636062	-0.039958514	0.40453902	0.08255517	0.081781395	-0.022836385	0.035300355	0.09694599	0.27740029	0.24037004	0.14682542	0.3429661	0.16894081	0.54338604	0.6959332	0.6018673	0.43197957	0.08689404	-0.2577541	-0.20142856	-0.46936476	-0.4018762	-0.36831954	-0.33299536	0.064829476	-0.07454667	-0.28919703	0.09892968	-0.2645065	0.43411124	-0.0215972	0.39396203	0.58803433	0.5228638	-0.05952246	0.228372	0.14480317	-0.1803503	0.1951894	-0.065600194	-0.123329766	0.05904879	0.071862936	-0.32309753	-0.1764973	-0.048494317	0.20378678	0.15991925	-0.14464766	-0.22564702	-0.072975814	-0.11844082	-0.14939268	-0.40064377	-0.5000438	-0.15468706	-0.13401829	-0.17588057	-0.1337893	-0.013736703	0.025863785	-0.15355107	-0.18091665	-0.28407982	0.060726535	0.059363253	-0.22892667	-0.117046066	-0.16457902	-0.29881105	0.20839296	-0.06955352	-0.13610746	0.020323781	-0.05350098	-0.11056739	0.10322194	-0.09958104	-0.06151822	-0.22726734	-0.019821681	-0.18145658	-0.0009938965	-0.22029905	0.066105574	-0.005332569	0.04743746	0.00872825	0.70734686	-0.04848459	-0.098818034	-0.10916332	0.11745704	0.140866	0.11563203	0.23423994	0.032751873	-0.0028666952	-0.029047392	0.0055541513	0.07470203	0.0732928	0.14470522	0.16299313	-0.081157684	-0.26854068	-0.11232435	-0.18665668	-0.35453418	-0.123657025	-0.3311972	0.024086218	0.049719114	0.028048597	-0.0035637196	0.09292217	0.029483244	0.17494628	0.11532938	0.23385257	0.109561495	-0.096473284	0.009858357	0.0024702153	0.2718583	0.24146965	-0.057085983	0.020610547	-0.03586324	0.03183456	0.16854429	-0.10723082	0.00227144	-0.022888841	-0.02519457	0.10239846	-0.13067952	0.14710994	0.0138084255	-0.06517013	-0.08928163	0.07036647	-0.2500439	0.19277745	-0.010353449	0.10232319	-0.057988413	0.037271995	-0.027853211	0.0046779383	-0.14473695	-0.16187726	-0.14073016	0.0046727695	0.109410726	-0.07055785	-0.08155397	-0.02605373	-0.08844853	0.06366661	0.11935993	-0.2423455	-0.101058334	-0.2507794	-0.2917574	-0.048065238	-0.3380763	-0.17243251	0.004913483	-0.0850994	0.095025115	-0.029014304	-0.09318428	0.07923753	0.5232042	-0.24386345	0.1464868	-0.060511325	0.06120676	0.034667797	-0.2958085	-0.008823056	-0.10001809	0.0388742	0.10020518	0.22905388	0.37723455	0.023434395	0.38890466	0.57028	0.9172213	-0.046874564	-0.04270097	0.0177644	0.08432468	0.06964305	0.105353355	0.2998575	0.054993916	-0.06162376	-0.068578444	0.0036196623	-0.026860505	-0.10400032	-0.007921139	-0.019086497	0.06777537	-0.20119926	-0.14708512	-0.13413325	-0.27846083	-0.20926069	-0.16046964	-0.38116482	-0.27693796	-0.09214593	-0.35284948	0.12108211	-0.11717609	0.060976695	0.16877902	0.08075355	0.065526724	0.11787276	-0.16061518	0.16747946	0.11356389	-0.08630083	0.074741565	0.16941012	-0.15540911	0.13148358	0.123589985	0.20037782	-0.07055192	-0.23064417	0.11997802	-0.034649104	0.01963172	-0.12509266	0.006703385	-0.052151654	-0.111692876	-0.1502338	0.0164495	-0.11040179	0.08748162	-0.344593	-0.35087284	-0.041879352	-0.05372343	0.006029371	-0.13758245	-0.09067385	-0.012773504	-0.050158974	-0.049779464	-0.06705467	-0.015657235	-0.026951045	0.10105422	0.07321101	0.049195364	0.19950284	0.24197681	0.31636778	0.1737529	0.2626117	0.10811051	0.15712383	-0.039519913	0.20637715	0.08365455	0.16385098	0.19581987	0.28033233	0.23734753	-0.16569582	0.017247759	-0.14309034	-0.20942928	0.0013334391	-0.28356257	-0.10862751	0.066998206	-0.1555504	-0.038460743	-0.0635312	0.09835588	0.23703365	-0.0058991653	0.16252081	0.15279664	-0.06077162	0.028615369	0.10871975	0.3878607	0.39192408	-0.04354688	-0.07637378	-0.1597808	-0.08797031	-0.074724585	-0.14572656	0.16419327	0.18432647	0.06552716	-0.046233717	-0.19708227	-0.038922325	-0.055078298	0.007550795	-0.036821797	0.052243866	-0.26614234	-0.0503543	-0.23781778	0.00928385	-0.17427619	-0.13192399	-0.12811728	-0.17490558	-0.314779	-0.17891674	-0.058768786	0.02751608	0.0731522	0.0059207818	0.13836387	0.056917686	0.13595372	0.17943056	0.229856	-0.1838652	0.11003246	-0.28476477	-0.24956077	0.22832674	-0.20707978	-0.18747568	0.033247437	-0.09758604	0.106906876	0.03543231	0.13667886	0.14306715	0.68808	-0.23545317	0.19075534	-0.22988425	0.26600286	0.12816176	-0.26562247	0.01774602	-0.16849166	-0.21906938	0.04881927	0.12886181	0.24207333	-0.1011124	0.39907426	0.4775017	0.6514838	0.023614045	0.18598789	0.26951137	0.28703484	0.21287505	0.19667725	0.22541425	-0.01338096	0.06682579	-0.20669214	0.10653472	0.020135358	0.08190279	-0.040488094	-0.008386021	0.09251669	-0.0129487	-0.002022019	0.025601571	0.04481323	-0.11385575	-0.11472526	-0.23522462	-0.18311812	-0.067459434	-0.1677862	-0.06579876	-0.07642239	-0.111084506	0.08456556	-0.107809894	-0.09827887	-0.06519291	-0.12069441	-0.016030438	0.10886627	-0.04008578	0.12357166	0.2426466	-0.14737825	-0.08880764	-0.13055733	-0.12828167	-0.15147209	-0.31886703	0.14928013	0.03904937	-0.088703275	-0.23624632	-0.09430713	0.22213943	-0.012068052	-0.13696097	-0.097428896	-0.1792252	-0.030502848	-0.3712853	-0.3241595	-0.16909504	-0.23228656	-0.20232637	-0.20481353	0.007033272	-0.051645212	0.10670539	0.14307387	0.089792155	0.06263977	0.11756543	0.31003684	0.36869794	0.24281888	0.3576826	0.22946866	0.13691889	0.13350481	0.18414222	0.278264	-0.06295349	-0.006277272	-0.029281335	0.108643875	-0.09865238	0.073823325	0.09889002	-0.04250465	-0.22259876	-0.31669772	-0.17569686	-0.030742709	-0.14081788	0.2071416	-0.036977477	0.05883504	0.24624817	0.13875	0.07115017	0.27945763	0.1452697	0.32408196	0.4026267	0.008534371	0.17983863	-0.051857546	0.1840524	0.27824762	0.2369253	0.13695453	-0.112736024	-0.00068838854	0.06618769	-0.105279475	0.3004617	0.07189268	0.06713894	-0.05303997	-0.13382353	-0.026358075	-0.054227535	-0.116088524	0.024732994	-0.10974558	-0.31570026	-0.20032214	-0.13197166	-0.28340837	-0.3705667	-0.25063473	-0.17144306	-0.3010317	-0.17659684	-0.39875567	-0.18058717	0.038485292	-0.042904716	-0.08937272	0.35989797	0.22007255	0.3766619	-0.11865459	0.15723488	0.45561552	0.24352832	-0.012199836	-0.033878222	0.19830653	0.086734064	0.2476233	0.08047574	0.016943825	0.06645592	0.1171011	0.2503311	0.07868008	0.15482055	0.0027277668	0.102454685	0.0577264	0.035968807	0.0100569	-0.23219474	0.09260346	0.0032050807	-0.018141372	-0.007584652	0.14301454	0.07316653	-0.09890361	-0.05339531	0.021571588	-0.01136266	0.41289964	0.16616099	0.4133265	0.26225474	0.31446278	0.16048622	0.07393803	0.032144755	0.011404866	0.00463253	0.22480474	0.07982768	0.065245725	-0.082042865	0.048324585	0.0062631005	0.15977973	0.08511549	0.1088661	-0.010454505	0.013503592	0.14709401	-0.097803116	-0.24807832	0.11014037	0.1005681	-0.12539753	-0.15125668	-0.22533254	-0.18763988	0.09233743	0.022958567	0.06709146	0.47891712	-0.07335718	0.17425705	0.05025436	0.1536708	0.104904756	0.24815358	-0.20277284	0.05033659	-0.24435607	-0.102064185	-0.18190345	0.09904717	0.00969861	-0.1759621	-0.26380998	-0.21527706	0.37772527	-0.0013726319	-0.037705477	-0.31294373	-0.108898014	-0.14136781	-0.22850761	0.0017692543	-0.3618239	-0.41268387	-0.20085077	-0.43651727	-0.08852109	-0.06322814	0.33161864	0.5864601	-0.026146961	-0.1874374	0.027708694	0.16908589	0.2071553	0.38617373	0.5877529	0.006531537	0.19312146	0.39988378	0.4346149	-0.022129731	0.3182678	-0.41301706	-0.18972647	-0.22655411	-0.19170861	0.01731329	-0.04622275	0.02519493	-0.0983445	-0.15062252	0.16623402	-0.10922488	0.15651499	0.2068011	0.008920663	-0.1019691	0.11510744	0.08910245	0.26358697	-0.31636643	0.18114763	0.09702617	-0.019024491	-0.28497237	-0.00026731938	0.37027544	0.31965214	0.19081485	-0.31468782	-0.242982	-0.3844966	-0.22720367	-0.37991786	-0.18386067	0.16094118	-0.32035336	-0.34432527	-0.30415717	-0.37797126	-0.44961104	-0.26460674	0.032988142	-0.21798056	-0.091920085	0.02603794	-0.14723158	-0.0072756433	-0.09950287	-0.113080055	-0.019042432	0.026568882	-0.014632292	0.089559354	0.10689884	-0.20880732	0.059523452	-0.059518117	0.15159607	-0.26235905	0.16727178	-0.02300373	0.00316832	0.25524163	0.7602131	-0.23134457	0.09111265	0.4833936	-0.25468847	-0.10833995	-0.2555503	-0.4310787	-0.2597899	-0.49703982	0.25523934	0.49744177	0.1801062	0.105124116	0.33963564	0.26433507	0.3305062	0.45945022	0.08795341	0.04935031	0.18080883	0.030019997	-0.17931962	-0.0025279417	-0.17928384	-0.25706884	-0.28655607	-0.19277968	-0.023880951	0.7123597	0.3044848	0.68297005	0.7128101	0.67614025	0.5977115	0.42002985	0.5728759	0.13916777	0.06365779	0.63979715	-0.07039575	0.34935614	-0.12830481	-0.2613196	-0.12009569	0.18291843	-0.04482072	-0.11288613	0.25535148	0.04916165	0.2550362	-0.1140744	-0.036641948	0.22302665	0.07172255	0.04329903	0.07833906	-0.1697819	-0.21538702	0.03902998	0.07243078	0.04414179	0.3765392	-0.12933226	0.5865541	0.34648362	0.59645283	0.30709562	0.22335371	-0.093315095	0.23169781	-0.3236546	0.08709292	0.0631171	0.40682992	0.16015248	-0.33193168	0.089961305	-0.46029526	0.065980986	-0.03265429	-0.18608344	-0.21659735	-0.35755906	-0.3755465	-0.27935883	-0.017393842	-0.26292983	-0.19618213	-0.17790146	-0.00910269	0.21569888	-0.20983744	-0.14902663	0.28921062	-0.039475437	0.06600918	0.028316641	0.07209459	0.2790581	0.2827498	0.10078502	0.027914813	0.17527555	0.34898028	-0.057140518	0.17264484	-0.080150254	-0.20387782	-0.052210502	-0.024928324	0.26810274	0.08300831	0.103958964	0.016873145	-0.015669866	0.081166826	-0.12948221	-0.21151076	0.051995717	-0.17694135	-0.038258612	-0.12063853	-0.013924358	0.16964237	-0.003095664	-0.03871983	0.04094708	-0.055898074	-0.18514857	-0.0318619	0.10510232	0.074165106	-0.14174636	0.051320363	-0.11543975	-0.24674276	-0.28460878	-0.025128914	0.4113971	0.21040042	0.076574706	0.03099911	-0.021617683	0.054534223	-0.016330743	0.18347724	0.007427418	-0.089776404	-0.0035088179	-0.14956233	0.03118238	-0.0684901	0.018719591	0.11591032	0.026644679	-0.0717538	-0.21961512	-0.046528943	0.007884158	-0.09837752	-0.088436745	-0.057646774	0.23445731	0.070540704	0.3082962	0.09128317	0.32194206	0.05518122	0.18741263	-0.21125716	-0.09123726	0.5122388	0.12946914	0.0028193006	0.16480112	-0.04697653	-0.005505328	0.19243608	0.4564284	0.106967054	0.17281476	0.08667633	0.11758477	0.037728816	0.20789553	0.048718303	0.030476471	0.015497449	-0.08333405	-0.1989183	-0.33619374	-0.27687812	-0.050734494	-0.02429834	-0.0855976	-0.06771227	-0.12069989	0.13111727	0.2739265	0.35336185	0.3289417	0.15729906	0.1891962	-0.03920042	0.08644991	0.20391871	-0.12234547	0.21709242	-0.05992859	0.30126217	-0.16888411	-0.0062789116	0.07556362	0.17343147	0.1307361	0.15841703	0.24869953	-0.06435362	-0.07471771	0.044040572	0.06718227	0.09773672	-0.06505022	-0.31357715	-0.09059183	-0.13987921	-0.15462498	-0.19283181	-0.22177035	-0.16379417	0.20223334	-0.1863176	-0.03871059	0.06395374	-0.034850996	-0.09932703	-0.13400777	-0.23427765	-0.30772805	-0.25018835	-0.22273658	-0.15861256	-0.03830041	-0.15620294	-0.06581588	-0.10459258	-0.10430761	0.44576225	0.17854358	0.060125057	0.030672198	-0.12363379	0.04390101	-0.08730173	-0.15360859	-0.1178239	-0.04669694	-0.05144064	-0.015937734	-0.010350515	-0.019176606	0.2334523	0.23286383	0.23944063	-0.0404668	0.06471529	0.120994925	0.7647098	0.4700744	0.27591187	0.50784504	0.6294113	0.12410481	0.43153518	-0.2225943	-0.22658771	-0.087334566	-0.0865726	-0.07278296	-0.18970959	0.09164047	-0.11018177	-0.21624772	0.031044584	-0.3854176	-0.18203261	0.061959703	-0.26129043	-0.1900704	-0.16065554	-0.1460827	0.42697394	0.26315063	0.6900288	0.70981	0.33140233	0.100685395	0.24478416	0.2843577	0.65492374	0.11757309	0.18064566	0.04653869	0.0866025	0.15545887	-0.07425827	0.23176105	0.453878	-0.25620696	-0.08473541	-0.14834912	-0.1976232	-0.2741661	0.07707835	-0.2500497	0.010030678	-0.3406254	-0.27582815	-0.24509086	-0.2074846	-0.12594886	-0.07917314	-0.28057358	-0.14459293	-0.19156973	-0.111422464	-0.2181553	-0.3028497	-0.11465847	-0.11847517	0.57456857	-0.07295897	0.32610956	-0.05503183	0.34384987	-0.030332534	0.33549613	-0.37745634	-0.20788239	0.4722651	-0.2687471	-0.1808272	-0.11864522	-0.2788685	-0.050347738	-0.17213367	0.121757574	0.334404	0.22930858	-0.06446637	0.13358068	0.04041461	0.12898374	0.41694745	0.05154128	-7.764151e-05	0.00038005877	-0.13879062	-0.31129223	-0.065176584	-0.17505777	-0.31216082	-0.18946542	-0.057593133	0.12416723	0.46218228	0.1507761	0.687925	0.64970434	0.6546903	0.7406513	0.3147252	0.27414387	0.37287444	0.07634202	0.48529723	-0.0686881	0.27033195	-0.35923365	-0.29719004	-0.12698823	0.0016860365	-0.17530052	-0.07980289	0.3105115	-0.23670916	0.2631962	-0.16065933	-0.24127418	0.08473589	-0.13324322	0.04787826	-0.26685545	-0.26201585	-0.061321698	-0.08947067	-0.12788516	-0.1730363	0.21582305	0.26906338	0.5818237	0.5622889	0.3487896	0.15776573	0.10191887	-0.21361615	0.23617998	-0.103568025	0.1759393	0.10747013	0.45175067	0.07913727	-0.02018636	-0.09842303	-0.23889127	0.24581441	0.38100454	-0.22957107	-0.28307053	-0.1725197	-0.1698433	-0.33777484	-0.37905714	-0.3841366	-0.35320622	-0.38045987	-0.29385865	-0.086845405	-0.059822004	0.15731314	0.26646832	-0.22413164	-0.09413311	-0.035951637	0.030174838	0.49320817	0.40576944	0.62776655	0.667241	0.36675596	0.68721366	-0.16767363	-0.19435656	-0.09968241	-0.032657776	0.06464274	-0.07982165	0.21683152	-0.03836653	-0.10191411	0.13435741	-0.27225897	-0.18681774	0.11448177	-0.23277532	-0.21223313	-0.038755722	-0.054665763	0.57178867	-0.10859794	0.534476	0.39519164	0.42780387	-0.068250455	0.11357222	0.53627145	0.7136708	0.29199842	-0.1469394	-0.15727425	-0.19243738	-0.13877936	-0.23241419	0.07946774	0.6197952	-0.38048917	-0.33985245	-0.26106346	-0.42119354	-0.4778187	-0.045883738	-0.27969292	-0.15256049	-0.31010082	-0.17002846	-0.33986473	-0.105259895	-0.15644996	-0.14573917	-0.25407115	-0.08978018	-0.24408482	0.028297734	-0.11605011	-0.4154274	-0.0791599	-0.092166275	0.50274366	-0.24832876	0.20139217	-0.076864734	0.19678801	0.018213645	0.54641193	-0.38869327	-0.18601766	0.5577544	-0.3486998	-0.16942368	-0.23739776	-0.39380905	-0.13779005	-0.41539302	0.20866352	0.53402984	0.32697567	0.07734812	0.349558	0.21346699	0.30991063	0.62111986	0.26341876	0.04852415	0.103042044	-0.08653444	-0.31825835	-0.122280836	-0.19102775	-0.35992855	-0.22520393	-0.059750628	0.14652482	0.5934754	0.15162526	0.74402153	0.8300497	0.69541854	0.7970221	0.51544863	0.5447586	0.54181504	0.23541881	0.73165447	0.022486925	0.3853079	-0.26735398	-0.40849525	-0.13961384	0.16731387	-0.11439803	-0.100455016	0.44577938	-0.19012588	0.22140111	-0.10977041	-0.2650695	0.1316646	-0.06587864	0.078735605	-0.20742178	-0.3313086	-0.1996544	-0.09071118	-0.1015757	-0.16796461	0.2197496	-0.090197526	0.55601263	0.6487137	0.5398505	0.1576256	0.1470329	-0.24161643	0.14225224	-0.36664087	0.00706153	0.10718508	0.38719577	-0.015909063	-0.25380212	-0.07911412	-0.4309863	0.14657849	0.288017	-0.34894493	-0.4261683	-0.30504456	-0.4155774	-0.42850244	-0.32317606	-0.45926374	-0.41072604	-0.4259913	-0.16656584	-0.014780202	-0.19112061	-0.03933981	0.32395178	-0.28758863	-0.11380068	-0.17378151	-0.035191227	0.46798897	0.5542923	0.50173366	0.60276574	0.5582716	0.4901318	0.16243929	0.18342975	0.45500895	0.15665115	0.32762444	0.4108728	0.17425342	0.22433321	0.23367487	0.106101006	-0.09594388	-0.19525705	-0.14107293	0.09761891	-0.15210089	-0.22704346	0.6391053	0.20432964	0.5565123	0.30242312	0.66020674	0.51619184	0.13570668	0.4461023	0.5852146	0.4492059	-0.007429964	0.004528256	0.04953297	0.043484826	0.05780546	0.28603625	0.5964735	0.0068178223	-0.22195704	-0.19198966	-0.24509414	-0.09559895	0.04677333	-0.2913681	-0.07325197	-0.19545236	-0.24959598	-0.2724102	-0.29969805	-0.31045234	-0.28504354	-0.42657524	-0.36046457	-0.3206272	-0.11613243	-0.22956038	-0.15426074	-0.24694233	0.15216284	0.40717795	0.027209954	0.07698811	-0.23926781	0.11465798	-0.055483285	0.0043450124	-0.085495256	-0.38220415	0.10870527	-0.1863713	0.012640446	-0.12897828	0.01188638	0.18921073	0.031168474	-0.1618991	0.26560336	0.12149587	0.26993677	0.1688186	0.23513003	0.089221016	0.5103481	0.29824972	0.070488624	0.048401386	-0.14322977	-0.22619	-0.109854594	-0.069042735	-0.16924387	0.04977985	-0.0006396437	0.0807905	0.21956207	-0.017875614	0.19834521	0.20781316	0.18846084	0.35817775	0.29575515	0.1741356	0.5923574	0.39030507	0.38059846	0.3719927	0.16826613	-0.0026488064	-0.213658	0.07352991	0.408568	0.077759326	0.19411238	0.41148505	-0.026102414	0.16510311	0.1895579	-0.13405396	0.12579197	0.1271244	-0.08231208	-0.22519158	-0.3653051	0.037578557	-0.07178364	-0.0010023765	-0.17436829	0.051260665	-0.1506527	0.053395476	0.4467847	0.20120937	-0.04972315	0.16805002	-0.31533203	-0.10821709	-0.3032417	-0.1079847	0.14786984	-0.017641732	-0.25428793	-0.11190589	-0.36766484	-0.316115	0.16797043	0.3546181	-0.0049887947	-0.45416224	-0.07210118	-0.16331664	-0.14014502	-0.19142161	-0.43194628	-0.4228036	-0.45553732	-0.3870995	-0.27289566	-0.11980582	0.16969678	0.18133304	-0.37159818	-0.24773589	-0.17108317	-0.10630493	0.7631446	0.3272275	0.28008205	0.3280805	0.42329732	0.265285	0.44840178	0.417794	0.05484485	0.024116274	0.2522693	-0.1269702	-0.13441616	0.13937491	-0.17734948	0.076560974	-0.103024594	-0.2102251	-0.04918087	0.041786924	-0.096329965	0.5425289	-0.21815321	0.5190761	0.121731624	0.20116289	0.2614268	-0.060845617	0.7013126	0.516228	0.2638889	-0.08071523	-0.13415463	-0.12730937	0.111258835	-0.17021695	-0.25831142	0.1578838	-0.23056155	-0.3164288	-0.3351401	-0.3507448	-0.272306	-0.28528073	-0.090364106	-0.19522852	-0.21103717	-0.15908158	-0.29133144	-0.05686822	-0.2304382	-0.33403435	-0.17471895	-0.20780927	-0.24219334	-0.13276069	-0.2065394	0.06775891	-0.091854826	0.18917118	-0.036769178	-0.115256935	0.06236273	-0.036717173	-0.17548054	0.04457436	0.2094221	0.00085039664	-0.21444122	0.010906555	-0.28192994	-0.027470218	-0.09111844	-0.15385444	-0.056987356	-0.27137	-0.20319629	0.6426118	0.15881012	0.29420406	0.44784844	0.28183436	0.40150407	0.6378764	0.20804383	0.014665569	0.19245613	-0.0630917	0.13522428	0.10148498	0.18106438	0.05182155	0.16695379	0.22033028	0.22148642	0.37311968	-0.13242237	0.18270536	0.27047172	0.29017755	0.29252064	0.5810009	0.50181115	0.094554596	0.16364102	0.3854443	0.34773302	0.22833382	0.1104929	0.07831539	0.16820087	0.06128675	0.04814106	-0.10114937	0.12787671	-0.10505251	0.14270261	-0.16775586	-0.18866602	0.17926861	-0.24957642	-0.023724662	-0.045532014	-0.15663175	-0.039731417	-0.09011356	-0.16277349	-0.2222962	0.023075448	-0.25683036	0.24844591	0.17677826	0.4403628	0.049018316	0.25123724	-0.17857121	0.10320451	-0.4098651	-0.0030655959	-0.026071861	0.081772365	0.13667516	-0.22124045	-0.24899927	-0.48404843	-0.20058502	-0.1098479	-0.17247391	-0.5571768	-0.23340525	-0.38435018	-0.2774376	-0.19928645	-0.20531361	-0.42445403	-0.41687036	-0.31460485	-0.05099192	-0.47052848	-0.13105656	0.09446222	-0.12822136	-0.02737321	-0.12959823	-0.047805715	0.50328404	0.3005926	0.45500678	0.16230333	0.060996946	0.23466837	0.28295735	-0.028309442	0.05925083	0.29556867	-0.07605955	-0.08082931	0.20661177	-0.17415175	-0.049253874	-0.07264058	-0.32273173	-0.13515805	-0.06620984	-0.15186718	0.46825543	-0.18617256	0.61026275	0.21867366	0.3364802	0.17419603	0.05585419	0.69187003	0.5886975	0.33590695	-0.2102796	-0.1598614	-0.19543697	0.052362777	-0.15595756	-0.15798685	0.31078362	-0.3768126	-0.39753664	-0.35237622	-0.44319147	-0.41533488	-0.26522434	-0.17079726	-0.06350071	-0.22002631	-0.23353975	-0.34593886	-0.05397304	-0.21452719	-0.30783185	-0.24543461	-0.18213204	-0.23978452	-0.016922088	-0.14487065	-0.19342646	-0.072598666	0.054228783	0.116755344	-0.21574055	0.12379644	-0.12207702	-0.07430025	0.10177209	0.39734748	-0.047719065	-0.22809759	0.25068104	-0.24924377	-0.04522601	-0.1865269	-0.24179979	-0.0954232	-0.3899801	-0.09208188	0.6875252	0.068974435	0.304867	0.40859908	0.24412666	0.4340504	0.73764837	0.31991243	-0.036918093	0.10741861	-0.2325597	-0.062966414	-0.022502454	-0.013675674	-0.2172334	-0.14813164	0.021797916	0.05902743	0.5471773	0.00010094704	0.44838142	0.5414636	0.5462196	0.54046315	0.62035304	0.6489009	0.25338408	0.18079647	0.59825313	0.24831833	0.34732893	-0.060628206	-0.1643443	-0.014142225	0.15080883	-0.010490893	-0.1980217	0.33865786	-0.16048342	0.28103292	-0.06648156	-0.20764664	0.26140878	-0.14162712	0.037406493	-0.084959365	-0.28068954	0.020098155	-0.08804844	-0.11214682	-0.25235265	0.06312444	-0.17424028	0.4943328	0.49342886	0.6129142	0.18493217	0.26038748	-0.21379925	0.14771356	-0.4734537	0.019038128	0.1277508	0.32048896	0.1938808	-0.1286003	-0.10013746	-0.51954746	-0.026721915	0.069185406	-0.26842076	-0.55698174	-0.27018088	-0.4411837	-0.31075972	-0.21823296	-0.30473125	-0.42650235	-0.50331527	-0.2632613	0.05804083	-0.49519318	-0.07947821	0.20037933	-0.25789332	-0.013555269	-0.1472021	-0.057396717	0.1734823	0.4863247	-0.11194876	-0.16823336	-0.09027292	-0.07406437	0.12358891	-0.12553594	0.08935714	0.084992476	-0.07431925	0.047804993	-0.27658477	-0.061424714	0.06766126	-0.20243587	-0.13698575	-0.1750648	-0.11657034	0.43755692	0.246103	0.49062562	0.5570974	0.341908	0.12527509	0.21860532	0.29097384	0.5166069	0.15387954	0.08531894	0.2131997	0.1779045	0.1823317	0.11773002	0.20501022	0.44842967	-0.14176323	-0.032620974	-0.05227472	-0.12849113	-0.24075323	0.13042544	-0.2563382	0.008799631	-0.22135311	-0.23992786	-0.010452516	-0.22135654	-0.045383383	0.06635125	-0.16162148	-0.088636026	-0.15076257	-0.060477305	-0.22864425	-0.11786577	-0.027258517	0.027857382	0.43714732	-0.11423824	0.22577462	-0.058741145	0.24851206	-0.107425034	0.3518676	-0.3977153	-0.19467282	0.3528627	-0.34079385	-0.19370957	-0.18327439	-0.3363295	-0.18841802	-0.17216764	0.10411635	0.36666888	0.2203542	0.038403478	0.22623605	0.12460966	0.2914738	0.4043585	0.10475879	0.06073294	0.09503109	-0.14130843	-0.31527275	-0.047592074	-0.18918756	-0.24061649	-0.22655259	-0.22571959	-0.036091335	0.3210936	0.062331825	0.5678455	0.57684237	0.5112663	0.56473225	0.2081233	0.32687113	0.36155698	0.037044156	0.46946988	-0.0936822	0.17453788	-0.29372308	-0.25806066	-0.11798011	0.0003326038	-0.00034334345	0.07564459	0.24035683	-0.15006542	0.14419986	-0.116531506	-0.14561582	0.027849909	-0.110585414	0.029728655	-0.13091274	-0.39901212	-0.08401678	-0.21281122	-0.18691345	-0.20542322	0.10351839	0.10468881	0.41773096	0.46966353	0.25869638	0.020815104	0.005289115	-0.104539245	0.07402534	-0.15089616	0.15158734	0.13512243	0.27702925	-0.043228153	-0.05713802	-0.15765414	-0.22134991	0.27043054	0.34080186	-0.12379523	-0.19198696	-0.10992076	-0.115380056	-0.31973857	-0.33357993	-0.32384244	-0.20759845	-0.33705154	-0.13851617	-0.1760923	-0.103458956	0.0691425	0.18933582	-0.1796779	-0.1714106	-0.072353624	-0.061016165	0.56021345	0.5205612	0.10890141	0.09668347	0.282473	0.2197827	0.3274438	0.5369935	0.1554724	0.32080647	0.2060819	0.26881152	-0.10383938	-0.13943404	-0.03472	0.064497985	0.08363061	-0.16531843	0.5506662	-0.14124049	0.23025373	-0.11011716	0.6468578	0.18218029	-0.11672496	0.37395695	0.34067968	0.4661584	-0.14632285	-0.18130115	-0.17302017	-0.22367993	-0.08776996	0.13372777	0.6113569	-0.010006715	-0.36736482	-0.19868964	-0.37142718	-0.20641662	-0.04180151	-0.268029	-0.2799675	-0.04783985	-0.08861364	-0.32508463	-0.21859667	-0.23323788	-0.26502946	-0.31924364	-0.18956238	-0.18451412	0.085310906	-0.083159305	-0.21751675	-0.29922217	0.099260315	0.24298173	-0.05961648	-0.17234086	-0.33163595	-0.10229281	0.13684748	-0.006597932	0.10477365	-0.19899029	0.13920422	-0.05921193	0.09408812	-0.10227187	0.046099395	0.13320206	-0.058182377	-0.0068513486	0.23849165	-0.051402204	0.40521395	0.10935258	0.4309858	-0.11390639	0.41534704	0.5571431	0.2583549	0.19077162	0.19830278	-0.26996332	-0.19157533	-0.07757487	0.0018893747	-0.031297963	-0.07326438	-0.027289208	0.19791421	-0.09485125	0.025227807	0.117131345	-0.029741436	0.24998249	0.31329358	0.2063795	0.6857661	0.6950971	0.3747472	0.44849142	0.19864146	0.006376847	-0.13896215	0.1174551	0.46393666	0.15789622	0.20927407	0.4140369	0.026441948	0.09800815	0.2625541	-0.063010894	0.07659135	0.22394875	-0.046474252	-0.19139752	-0.23863243	-0.12604965	-0.019960312	0.012457372	-0.04182082	0.24313784	-0.4303042	-0.10096673	0.3913848	0.12998137	-0.22147729	0.17280768	-0.39671344	-0.17178968	-0.37345493	-0.2764553	0.15693621	-0.22144756	-0.41832805	-0.35685346	-0.22723988	-0.37069583	-0.032404166	0.21129738	0.01404076	-0.472897	-0.22958657	-0.3777307	0.018264314	0.08287965	-0.35398826	-0.34888294	-0.2523746	-0.14201291	-0.27553242	-0.13144758	-0.030790247	0.1717668	-0.43344012	-0.35090902	-0.32180637	-0.2791502	0.11155542	0.028497122	-0.070781216	0.22234023	0.28072608	0.31897154	0.5551109	0.25500283	0.29009065	0.36029312	0.12093867	-0.03447957	0.042491745	-0.054288615	0.026110299	-0.026182681	-0.15592022	0.57784986	-0.14982082	0.36162165	0.1789811	0.70490515	0.10886736	0.24264514	0.45300472	0.68082047	0.347127	-0.104364656	-0.12998942	-0.13469577	-0.19740604	-0.055209838	0.046439063	0.7265534	-0.25308317	-0.35094842	-0.15006524	-0.47207874	-0.3297709	0.066524945	-0.26831475	-0.13996382	-0.038218714	-0.11234734	-0.21663028	-0.18588297	-0.0347324	-0.12184397	-0.22631311	-0.1089664	-0.026516559	0.29347187	0.1126401	-0.20080468	-0.027024021	0.27820298	0.44855827	-0.22097528	0.09710485	0.08600884	0.22365437	-0.034192495	0.3149502	-0.259791	-0.17868145	0.31138483	-0.3031734	-0.1829974	-0.17617576	-0.31999317	-0.07037033	-0.3172509	0.008517775	0.25835198	0.16373985	0.13726	0.19764641	0.21977039	0.21505861	0.42492408	0.39049852	-0.012649162	0.07170576	-0.0700705	-0.3726465	-0.33716407	-0.2594954	-0.27924302	-0.18269934	-0.27688158	-0.016500201	0.2555966	0.09918357	0.41181225	0.48929325	0.29649583	0.44262394	0.24275199	0.28954577	0.65520215	0.2742427	0.5653645	0.093879804	0.33813518	-0.21167684	-0.26716697	-0.04308239	0.38389584	-0.025707213	0.0472451	0.50588375	-0.0042227185	-0.013750001	0.13059327	0.044049554	0.24459077	0.1450147	-0.074118525	-0.16574517	-0.36732504	-0.21036793	-0.09602113	-0.033349138	-0.11094953	0.17288637	-0.29070362	0.18538053	0.5836937	0.33216783	-0.020619052	0.260284	-0.37398008	-0.18717492	-0.41154486	-0.11950795	0.07144559	0.0823401	-0.31974742	-0.3138288	0.0035140386	-0.35122028	0.04073924	0.36611217	-0.17862053	-0.35856253	-0.22540282	-0.40537292	-0.109667175	-0.08760864	-0.37630674	-0.31421527	-0.32243013	-0.10404607	0.06723984	-0.13089195	-0.020464111	0.15465708	-0.18073155	-0.1408712	-0.18199953	-0.12779197	0.5757698	0.4453546	0.6459619	0.28212798	0.34258926	0.35767215	0.1689388	0.26827943	0.13258	0.32786086	0.030889492	-0.34791458	0.033265796	0.21348242	0.06079386	-0.006803361	0.38159406	0.03809273	0.08809368	-0.17134315	0.29711065	0.48918432	-0.15455529	0.29506904	0.053376254	0.33243248	-0.026410837	-0.10945676	-0.02966942	-0.06568359	0.0563486	0.124284975	0.16237304	0.29608092	-0.12531811	-0.1484885	-0.032519907	0.13419314	-0.029922329	-0.08197534	-0.15090892	-0.032814927	-0.11540035	-0.1942776	-0.12141906	-0.28773642	-0.36309963	-0.23137037	-0.36088634	-0.2989148	-0.224561	-0.12338955	0.19782338	-0.20091712	0.23488778	-0.031093502	0.24816132	-0.1563151	-0.14698866	-0.18888147	0.02472805	-0.3421117	0.27581424	-0.24193373	-0.2842126	0.04704896	0.20337103	0.03937217	0.2456348	0.22318946	0.22951864	-0.26798669	0.06590077	-0.014223359	0.35340893	0.07936258	0.21108453	-0.043617073	0.13969672	0.1997509	0.15310088	0.064734474	0.018720528	0.22282557	0.15058987	0.32587487	0.27219996	0.4827078	0.2784861	0.036142465	-0.14635798	-0.12565787	-0.42285976	-0.41241458	-0.3910144	-0.31074548	0.08675066	-0.11010535	0.1937455	0.32441756	-0.1223159	0.6764178	-0.0038353715	0.46540558	0.27967846	0.34455022	0.32641673	0.3134978	0.2799398	0.08193438	0.21716051	-0.031532962	0.21315542	-0.04891949	0.019077493	0.14897364	-0.27155724	-0.098880656	-0.16401924	-0.00055250584	-0.060010813	-0.06954946	-0.15592049	-0.11982727	-0.4203299	-0.48916364	-0.19977477	-0.15586387	-0.2832266	0.06053751	-0.31337342	-0.30034706	-0.29145548	-0.33232898	-0.09786099	-0.5106467	-0.31228375	-0.21196026	-0.5365311	-0.21813986	-0.060874984	0.0099764755	0.21400152	-0.38924825	-0.0487928	-0.09206654	0.07516338	0.16208623	-0.18907297	-0.3345517	-0.23376618	-0.3471505	-0.31248212	-0.16898674	0.072081454	0.017045856	-0.15254362	-0.11424806	-0.06424533	-0.040989876	0.3991189	0.66096836	0.17861812	0.23141399	0.15105052	-0.034047823	0.04165187	0.26784205	0.29612148	0.24748679	-0.20269588	0.2854609	0.34288362	0.110029496	0.21360628	0.16135773	-0.06541106	0.04382312	-0.03340733	0.009158204	0.33516827	-0.052179582	0.33790416	0.09231385	0.34488624	-0.16751797	-0.31097606	-0.10987996	-0.055166878	-0.108277015	-0.014065637	-0.02592232	0.1503704	-0.21597417	-0.34884998	-0.06841411	0.019295998	-0.11593264	-0.0004194961	-0.10791892	-0.17946754	-0.092474416	-0.2275788	-0.019901339	-0.3648734	-0.47625038	-0.322709	-0.4802723	-0.22449008	-0.27504122	0.0426102	0.25387043	-0.03629609	0.13349478	-0.12865643	0.17687005	-0.053472247	-0.026675632	-0.088927984	0.13069066	-0.15687332	0.26868755	-0.13694306	-0.3374458	-0.04271301	0.20014802	0.037158135	0.21059172	0.2839787	0.15910737	-0.1686322	-0.0112841455	0.21781301	0.19708386	0.15459646	-0.053993132	0.108005	0.00232621	-0.08608828	0.036291618	-0.019667098	-0.10087449	0.5160247	0.38182086	0.29797858	0.06423144	0.510702	0.3924132	0.10217653	-0.07511363	0.03653022	-0.26341352	-0.25114402	-0.13960688	-0.274647	0.057859086	-0.101036645	-0.06811352	0.017171616	-0.056437496	0.48292303	0.010234162	0.49373075	0.3098413	0.2909936	0.32530132	0.29494587	0.08342569	0.0962628	0.25716984	-0.044131164	0.053535543	-0.07102498	0.2107515	0.26172626	-0.06988321	0.04153417	-0.23061772	-0.001543712	0.099095345	0.112758294	-0.011404243	-0.25012353	-0.30675337	-0.2862426	-0.34612778	0.1042984	0.06530956	0.10320594	-0.23984936	-0.119373366	-0.38008928	-0.37387377	-0.28965592	-0.25171408	-0.060219787	-0.23330003	-0.37879282	-0.32943296	0.030570596	-0.17279336	0.0012159183	-0.38764673	-0.22248527	-0.19600861	-0.05533713	0.19973207	-0.31907007	-0.36482581	-0.26881582	-0.4539593	-0.00018778082	-0.26551434	0.03257541	0.09342591	-0.024134807	0.023145573	0.19521192	0.2537528	0.4741512	0.17047359	0.0012516273	0.15494539	-0.16431972	-0.16831419	0.32554123	-0.07591473	-0.07749526	-0.02961284	-0.07281862	-0.12385512	0.030509192	0.02216435	0.11223379	-0.1863442	0.08497666	-0.058158446	-0.110423625	0.21133392	-0.17327517	0.37811977	0.08019842	-0.10583195	-0.052629612	-0.1832822	-0.101341784	0.10771077	-0.16246384	-0.14272723	-0.1080272	0.06258998	-0.21555074	-0.4076101	-0.12736194	-0.038669534	-0.18843517	-0.08491435	-0.21167453	-0.25093037	-0.2276378	-0.27963972	-0.123425834	-0.29932645	-0.38924265	-0.37519738	-0.40284312	-0.41723615	-0.26948872	-0.17857485	0.17537725	-0.18006289	0.07584856	-0.2952182	0.021052793	0.030845534	-0.07381753	-0.30474722	0.076842144	-0.17283554	0.12270924	-0.22543111	-0.21651253	-0.08539135	0.07108401	0.21017197	0.1255734	0.21397947	0.066111535	-0.20643717	0.21656136	0.05691049	0.35678205	0.1813652	-0.0012825691	0.13730475	0.21574791	0.11972575	0.09703837	0.23515603	0.030583112	0.36849925	0.1646932	0.42345217	0.4182083	0.45861018	0.47328153	0.12540816	-0.0017719269	-0.097179584	-0.2122852	-0.15251453	-0.025601316	-0.0866591	0.28177363	0.09815308	-0.13028887	0.070400946	0.010725278	0.48001418	0.26351884	0.25306666	0.47666475	0.61039776	0.11582638	0.2981021	0.019922262	0.119281255	0.2807112	0.12988642	-0.02498702	-0.0028432359	0.2869602	-0.12971337	-0.03170363	0.02180693	-0.015189197	0.083538935	-0.03490291	-0.06934896	-0.03258716	-0.0317277	-0.181594	-0.09110885	-0.14236176	0.22471279	0.08797903	0.08861488	-0.1803482	0.09864781	-0.17109573	0.010345258	0.0017729574	-0.061917793	0.24780168	-0.05901558	-0.24538362	-0.36179045	-0.13416162	-0.2513964	-0.028563162	-0.29169556	-0.25539345	-0.17989977	-0.15630187	-0.21036014	-0.14180417	-0.3301372	-0.25645563	-0.355692	0.12752785	-0.4078585	-0.09493603	-0.07763041	-0.046072464	-0.022993604	0.18669106	0.11724877	0.2025575	0.4293851	0.4484954	0.05755667	0.21868257	0.43576616	0.3162513	0.14311886	-0.19057094	0.07924382	0.36093593	0.05239034	0.07905207	0.2836066	-0.096442744	0.14733912	-0.09815178	0.2579874	0.486523	0.119762555	0.47771838	0.3255759	0.2975329	-0.2254689	-0.27613178	-0.110810824	-0.096542545	-0.09197755	0.034325566	0.16686596	0.106980585	-0.31584302	-0.3496843	-0.21198307	-0.0050560767	-0.09536042	-0.043327194	-0.10490529	-0.13893801	-0.16815431	-0.34164444	-0.118127465	-0.38119686	-0.4901481	-0.3789702	-0.4680374	-0.26225325	-0.079193994	0.1046609	0.20319848	-0.017368404	0.32191032	-0.10816945	0.092718534	-0.061338916	0.008517292	-0.09709141	0.10375217	-0.07792153	0.25285038	-0.24895056	-0.12173291	0.046428405	0.12689954	0.0060095703	0.22460966	0.3388311	0.12932639	-0.20487253	0.044892225	0.15439375	0.24060953	0.078760356	0.021524185	0.060125895	0.18786263	0.045962743	-0.07119991	-0.11278838	-0.27176175	0.28920707	0.1222201	0.21099989	-0.03536569	0.3884084	0.31703308	0.16126321	-0.02625731	0.03569055	-0.2237525	-0.16227232	-0.11343024	-0.19924627	0.120836444	-0.07254403	0.15044984	0.11554268	0.02402938	0.51901984	0.107113846	0.31174767	0.17212366	0.3444928	0.49616185	0.26512897	-0.0045990045	0.28880125	0.16085242	-0.11839573	0.156908	-0.035067555	0.3273298	0.25122923	-0.06591194	0.103999086	-0.2774205	-0.050678298	0.09671886	0.11265811	-0.053370893	-0.15653567	-0.44917327	-0.2843806	-0.098991826	0.111512706	0.00805063	0.11904238	-0.31518868	-0.3221355	-0.48331037	-0.35957986	-0.26126304	-0.28339866	-0.18354142	-0.26299086	-0.38579008	-0.35104796	0.014231355	-0.13496925	-0.049175665	-0.46732715	-0.21051913	-0.2554556	0.0020040045	0.10043793	-0.37498719	-0.41277856	-0.37216228	-0.48634467	0.032485053	-0.30905798	0.0836786	0.085238464	-0.13149579	0.066833794	0.02657738	0.1471317	0.2737912	0.23001277	0.15802507	0.2608261	0.23007137	0.18911453	-0.1758422	-0.10051987	-0.21869147	0.06791083	-0.19687574	0.008388737	0.19889762	-0.09846511	-0.18644975	-0.056577433	0.22980788	0.019270761	-0.28653425	0.09979373	-0.04057712	0.10037097	-0.022321455	-0.13757095	-0.2634112	-0.4469721	-0.0870614	0.3798841	0.41721272	0.43647516	-0.06732476	-0.05527342	-0.030550165	0.22347729	0.27104473	0.10396827	-0.09759208	0.10969375	-0.35452157	-0.21562222	-0.26510227	-0.33392182	-0.18958911	-0.10633086	-0.35512206	-0.3354497	-0.13324808	0.06611267	0.17669544	-0.30061063	0.04188656	0.30752385	0.4523237	0.43273377	-0.040605232	0.0912474	0.12685803	-0.022899473	0.007418224	-0.076107584	0.15835734	0.19748093	0.116262056	0.2445989	0.10793174	0.16643047	0.28813866	0.23113643	-0.010290724	0.23679155	0.19329767	0.12274912	-0.13983934	0.16966142	-0.002509855	-0.012827592	0.24688704	0.12339745	-0.13295844	-0.15542845	-0.1561338	0.051925	0.19090071	0.11427685	0.011878275	-0.12867491	-0.15436864	0.3444094	0.14754564	-0.0022946491	-0.079592295	-0.10730261	-0.19625455	-0.2104015	0.33476222	-0.06540622	-0.02922755	0.23114501	0.16641666	-0.03866435	0.18239082	0.3110683	0.33848035	0.56137514	0.6622446	0.3297333	0.41601074	-0.039270338	0.26619607	0.22795539	0.12466403	0.29393116	-0.27147382	0.07752534	-0.25162688	-0.0069707804	-0.24530719	-0.265033	-0.12467196	0.2003027	-0.3014023	-0.22544347	-0.0028176391	-0.16062254	-0.12400581	0.0789772	-0.36513355	-0.4238687	-0.30639607	-0.19773422	-0.09344236	-0.26387262	-0.19354145	-0.31309807	-0.27256683	-0.15511884	0.46100008	0.24947554	0.26278508	-0.030135421	-0.08587637	0.062291767	0.14312172	0.22888623	-0.19069545	-0.21204966	-0.23314802	-0.17387898	-0.016303534	0.104035065	0.4054974	0.32403734	0.1606622	-0.08257398	0.3472836	0.31926808	0.5595119	0.28948733	0.6250153	0.5566243	0.7090728	0.16107537	-0.13375992	0.040773563	0.37947038	-0.10299181	-0.31975973	0.14915395	-0.18343917	-0.13027632	-0.33898535	0.40749308	0.21929552	-0.02559199	0.040445548	0.055370215	0.3274976	-0.101424806	-0.16449247	-0.23604573	-0.34639305	-0.01864428	0.120139316	0.32261622	0.18245035	-0.25678307	-0.07220835	-0.21360457	0.14131932	0.047313217	0.027735855	-0.10300433	0.3448813	-0.07993568	-0.029322138	-0.27983004	-0.10862603	-0.17789765	-0.17120671	-0.21224993	0.050296407	0.2558304	0.37704715	0.039638072	-0.20220622	0.21821648	0.03659885	0.05440344	0.0074773263	-0.12374632	-0.055715047	0.14912447	-0.106159024	0.30904078	-0.032685526	-0.049584527	0.2276293	0.23642448	0.04566463	0.30535465	0.2559201	0.2003071	-0.06686941	-0.21902405	-0.22947901	0.33736587	-0.20413986	0.11476985	-0.14491008	0.023064112	0.23793676	0.07739284	0.016393108	-0.10528405	-0.20588562	-0.3922508	-0.14698875	0.0038451937	-0.05909327	-0.28188953	-0.26999626	-0.08175603	0.033798363	-0.15330897	-0.14855385	-0.26040664	-0.17328621	-0.17952333	-0.1700085	0.3755378	0.24855585	0.031489354	0.16421951	0.08807038	0.08487539	-0.0041357907	0.055110738	0.68415165	0.15863009	0.24018084	0.42685977	0.21820521	-0.13019674	0.5521783	0.45542407	0.2907058	0.5780347	-0.25144064	0.13468428	-0.19234563	-0.012333739	-0.023757791	0.16148013	0.032697834	0.084307544	-0.37736642	-0.35343954	0.11279316	-0.11705018	-0.19040401	0.23290423	-0.33822963	-0.36482194	-0.35507795	-0.2260146	0.06327799	-0.35002792	-0.37116945	-0.16512771	0.03811399	-0.12692423	0.09982284	0.12560031	0.26727444	-0.06883632	0.015414162	-0.05177601	0.36462817	0.29697672	-0.11043292	-0.009327162	-0.12202348	-0.038534846	0.09891428	0.008333036	0.11958731	0.022867775	0.008987622	-0.12247901	-0.05760817	-0.10809336	0.3062648	0.35863087	0.4359028	0.36310762	0.05784152	-0.13331701	-0.13774666	0.11092858	-0.19395086	-0.27074534	0.28585577	-0.1612384	0.14675657	-0.18295449	0.4303634	0.13494508	0.25915018	0.25533596	0.35552523	0.20510104	-0.09682414	-0.14823316	-0.16538334	-0.22762088	-0.083862394	-0.07584994	0.39892167	0.0010057313	-0.27751413	-0.17024903	-0.3104665	-0.035928562	0.042012136	-0.0979525	-0.06260477	0.17524153	-0.047173798	-0.19476905	-0.04372677	0.112247474	-0.110458896	-0.19082506	-0.06855552	0.019498331	0.4520489	0.28416836	0.033843633	0.009417456	0.40865055	0.0927774	-0.0956843	-0.13335194	0.1127331	0.04239299	-0.01869053	0.07293483	0.08761945	-0.05041752	0.1890094	-0.029653022	-0.11534598	-0.17610262	-0.0095304735	0.117815375	-0.081655376	-0.10753412	0.1346665	-0.10785678	0.3722148	-0.015759045	0.26090476	-0.021025052	0.3292446	0.47053126	0.2072508	0.19681516	0.026261415	-0.15990418	-0.30499226	-0.11502685	0.012678988	0.05932202	-0.16579252	-0.12348826	0.023192886	-0.015804505	-0.034480635	0.076353036	-0.0881795	0.12895058	0.13865848	0.10879534	0.42891124	0.3957041	0.19736512	0.23906775	0.25397065	0.05146579	0.0054644383	0.0870098	0.44668072	0.13655575	0.13792767	0.4760168	-0.0021922528	-0.19196005	0.16528186	0.14748763	0.25015467	0.16443974	-0.23594707	-0.046148807	-0.16464764	-0.0816571	-0.20414796	-0.054815568	-0.15756832	0.078725904	-0.4116313	-0.15422356	0.222406	0.050287586	-0.18813954	0.16804308	-0.4513028	-0.31449586	-0.42444557	-0.27347407	-0.05480738	-0.23788962	-0.40246916	-0.36494756	-0.06886847	-0.3574757	-0.14529274	0.1051873	0.068117686	-0.30801344	-0.30737844	-0.28783956	0.06828414	0.08656105	-0.26911026	-0.15418655	-0.26042366	-0.13798979	0.010436606	-0.19537556	-0.0715001	-0.09188568	-0.14157502	0.010458022	-0.16951366	-0.2368329	0.55129874	0.11518349	0.36193153	-0.0452138	-0.1404048	0.06620184	0.21054402	-0.019408604	-0.091122426	-0.056831643	0.18875384	-0.118780315	-0.10723131	0.37132004	0.024524137	0.34291154	-0.21603616	-0.108777486	0.0031681815	0.017071432	0.46327847	0.11114623	-0.20761393	0.25784045	-0.027913038	0.22981724	0.061961908	0.120715864	0.3409039	0.118354864	0.23864739	0.38795522	-0.09052852	0.16537637	0.4393517	0.29778168	0.28753442	0.22593577	0.38937354	0.45794407	0.22099285	0.33960605	0.29374793	0.5888833	0.49527875	-0.14719793	0.13565543	0.36343414	0.04364256	-0.11739818	-0.16772436	0.35434592	0.28407282	-0.3949084	-0.088557184	-0.09627962	0.07986454	-0.24587794	-0.17452261	-0.29296246	-0.306051	-0.16592912	-0.15401393	-0.16986385	-0.34777936	-0.18155004	-0.31047097	-0.11255123	-0.21336797	-0.040013112	-0.1576948	-0.115262456	-0.04165688	-0.11487118	-0.0020544308	-0.008027058	-0.19085129	-0.31391266	-0.26742876	-0.22868328	-0.21067491	-0.35046425	-0.261847	-0.2146078	0.08134593	-0.25575712	-0.2504354	-0.31886572	-0.20986715	-0.24710011	-0.18989828	0.17765419	-0.041882664	-0.24576284	-0.04329212	0.010336035	0.07961125	-0.26040715	-0.21715142	0.008634211	0.014288592	0.044599336	0.19070958	0.17617436	-0.31058472	0.20611897	0.1730773	-0.23312673	0.24772342	-0.0684506	0.20607148	-0.18742381	-0.08734706	0.0012800469	0.056956995	-0.1316911	-0.2085791	-0.0999112	-0.21930303	0.06096531	-0.25886816	-0.32429525	-0.10953825	0.13610283	-0.34924802	0.069432266	0.07444136	0.022370366	-0.36013126	-0.3562069	-0.11753811	0.024343101	0.15931106	-0.2288512	0.19387428	0.10385844	0.25620434	0.16388445	0.15523009	0.36032617	0.26898327	0.1815431	0.32121083	0.21880673	0.35864142	-0.10350404	0.16349526	-0.21765748	-0.34532532	0.024195464	0.30992946	-0.038096987	-0.19681069	0.25003305	0.66021514	-0.11639751	-0.18165895	-0.09341456	0.22810513	-0.13118133	-0.20724183	-0.06689899	-0.06298776	-0.21275587	-0.26963586	0.519494	0.28488153	0.06482676	-0.14776883	-0.11011557	0.22066584	-0.08343781	0.15164511	-0.041007094	-0.34167713	0.36283195	0.12349309	0.44949073	0.26056236	-0.14989054	0.23963064	-0.10629086	0.21404028	0.42792344	-0.00056696206	0.002325709	0.4725309	-0.02006475	0.008627887	-0.11943023	-0.007606109	0.05856428	0.10847523	0.0694748	0.16327049	0.38859668	0.3696124	-0.015665544	-0.22487205	0.18582277	0.0739654	-0.052304998	-0.12205437	-0.049043752	-0.059373047	-0.15373701	-0.112462364	0.12299196	-0.008828617	-0.09040414	0.12334413	-0.025938045	-0.14353202	0.10730318	0.03220296	0.016781202	-0.20386417	-0.2113613	-0.28359184	0.07675974	-0.19250712	-0.0027587123	-0.10623981	-0.0639442	0.16180155	-0.0801213	-0.19071808	-0.20475458	-0.36111015	-0.38750815	-0.26822916	-0.22734629	-0.26746666	-0.4034075	-0.40559742	-0.249128	0.02579874	-0.20013952	-0.27884978	-0.33419228	-0.24570076	-0.32643613	-0.24906857	0.4509939	0.079882465	-0.098951176	0.016581044	-0.11555245	0.029029237	-0.23530379	-0.15634105	0.35676235	0.13108878	0.21706165	0.3005194	0.123667866	-0.008241939	0.73426485	0.33801347	-0.0006220516	0.60112166	-0.18761294	0.12539843	-0.28630924	-0.1058362	-0.15241757	-0.05563734	-0.23041028	-0.08508042	-0.28208408	-0.3276151	0.21337026	-0.31194234	-0.36378068	0.06907157	-0.15475138	-0.532631	-0.22677006	-0.04061523	0.33388665	-0.42373532	-0.32647344	0.01677642	0.011222674	0.19730309	0.037266217	0.36464262	0.28018805	0.07582949	0.37751332	0.061931342	0.5177691	0.35459614	0.09835041	0.087545514	-0.03319334	0.3099893	-0.07734791	0.13649476	0.015825272	-0.07940065	-0.0031861276	0.029014904	-0.14409775	-0.15027764	0.46541888	0.083028436	0.064558096	0.065901026	0.0853264	-0.05621513	-0.30131775	0.12613039	-0.31996375	-0.030191459	-0.13661097	0.28520346	0.0779541	0.007639057	0.2944853	0.26857153	0.13635603	-0.16015576	-0.29305243	-0.33494616	-0.15904975	-0.23842306	-0.09699655	0.265376	-0.17594284	-0.49421692	-0.44684434	-0.46553752	-0.26816338	-0.1424377	-0.1461612	-0.32336247	0.052249186	-0.25495988	-0.2390976	-0.36400136	-0.25168434	-0.30284065	-0.35242286	-0.34886074	0.008864543	0.18817158	0.33123508	-0.044394974	-0.20700976	0.20373893	-0.07671688	-0.23918167	0.16599663	-0.15377237	-0.21092181	0.29792336	0.061975606	0.17078514	-0.17256628	0.069541365	0.037883986	0.18514538	0.16078065	0.17387831	0.3693591	-0.013098787	0.022850908	0.06644996	-0.020961307	0.3574448	0.050627917	0.08420774	0.047231954	0.2186127	0.18056777	-0.012932276	0.09105463	-0.0913079	-0.0762529	-0.22564527	0.10138113	0.100033134	0.009968325	-0.010013475	-0.09095329	0.09485339	0.12517002	0.048308976	0.14187089	0.109706774	0.09719152	0.11569878	0.094107695	0.24270827	0.15470983	0.31801692	0.20356297	0.5182566	-0.00064530293	0.14388232	0.45008245	0.61328727	0.26321277	-0.024178324	0.50263244	0.34167922	-0.0017431255	0.30799598	0.4510351	0.71059155	0.4346222	-0.029061273	0.17569472	-0.2528809	-0.07865702	0.037648067	0.048736326	0.07502556	0.107191704	-0.31224626	0.023604466	0.25447738	0.35167524	0.13906057	0.13514219	-0.43388733	-0.09303072	-0.30407646	-0.03557795	0.10024603	0.06152341	-0.062011044	-0.15441638	0.18067275	-0.44117132	0.024570767	-0.09213113	-0.13918412	-0.15733586	-0.34024492	-0.4091286	0.17845124	0.05026159	-0.19860688	-0.18443413	-0.2612113	-0.14284094	0.4712234	-0.29599705	-0.05149305	0.07312103	-0.039363727	-0.00066209945	0.12116031	0.101109244	0.16566743	-0.24586552	0.118518576	0.2870376	-0.103262454	-0.19413416	-0.09631096	-0.08788533	-0.3220712	-0.43272132	0.27048412	0.24837069	-0.02481201	-0.15960008	-0.17229849	0.3875827	-0.12115758	-0.09809256	-0.12150587	-0.3018433	0.11194858	0.012370424	0.18623884	0.18231337	-0.1249867	0.068855435	-0.10461777	0.14440715	0.07574784	0.22608092	-0.06088541	0.53612906	-0.027149284	0.017999515	-0.15579763	-0.0948021	-0.15237245	-0.0023380718	-0.10598106	0.16677731	0.23271786	0.38767797	0.05118595	-0.21142074	0.20026045	-0.06125465	0.0512585	-0.15410784	-0.15430078	-0.14298908	0.084601656	-0.14101022	0.33710283	0.014380209	-0.19167636	0.20710546	0.18179733	-0.037087485	0.26076785	0.121634796	0.14349945	-0.105732605	-0.30401826	-0.24506061	0.18927726	-0.24137554	0.115836635	-0.2215651	-0.11297926	0.119642355	0.11419106	-0.01948538	-0.07828023	-0.09730516	-0.20614758	-0.093352854	0.032691706	0.0055396836	-0.26271972	-0.34996995	-0.19216396	0.041339215	-0.28087997	-0.31934544	-0.37747926	-0.28855062	-0.32180473	-0.2448054	0.23100466	0.13959114	-0.120551094	0.12970702	-0.02241988	0.2557317	-0.01495537	0.003919478	0.51898354	0.115836516	0.22622296	0.25294247	0.28433254	-0.09017512	0.56450206	0.53681207	0.19037142	0.6710051	-0.2869888	0.13650814	-0.025290798	0.05614853	-0.10724492	0.1437328	0.014696123	-0.04361092	-0.28906646	-0.41495714	-0.062688366	-0.22233358	-0.15396184	0.050517306	-0.2670898	-0.330517	-0.24552038	-0.21770328	0.0938258	-0.3543859	-0.33822793	-0.048910223	-0.014936668	-0.008325502	0.012770739	0.07392829	0.24825497	0.025931962	0.12659545	0.018337874	0.5139939	0.5023464	0.04665416	0.03131231	-0.021036413	0.0571152	0.01596373	0.11488516	0.002846099	-0.019986069	0.08705631	0.0107195815	0.040754486	0.034647826	0.29280496	0.48593178	0.29802695	0.27745557	-0.13197632	0.1607784	-0.060473103	-0.02316128	-0.059895318	-0.123640686	0.1667665	0.1339244	-0.02043418	0.037597127	0.1362261	0.02962128	-0.05420929	-0.033459403	0.15382846	-0.1223613	-0.19644098	-0.23817454	-0.038156573	0.021468742	-0.055211537	-0.033923645	0.049107224	-0.31801477	0.31997952	0.0070030917	0.09707769	0.3043804	0.17044884	0.0033558984	0.11352816	-0.018461397	0.12980084	0.04558164	0.32876396	0.07937839	0.19009246	0.35749668	0.29416183	0.42742977	-0.1458292	-0.01745616	-0.11265751	0.1334593	0.08028946	0.30110022	0.056129657	0.20502886	0.091932744	-0.23608094	-0.05717184	0.12859955	0.01874969	0.010323498	-0.040487833	-0.061674785	-0.082612656	-0.03603736	-0.04523419	0.004924211	-0.019498855	0.1775345	-0.07899818	-0.09058199	-0.15758029	-0.065586135	0.028721489	0.15417928	0.20262887	0.04608308	0.009665464	0.13677156	0.22845206	-0.07891018	0.08300748	0.085516125	-0.096692756	-0.10918215	-0.070083454	-0.06336685	-0.14756508	0.030086812	0.035494637	-0.25442284	0.061093725	-0.04073054	-0.023386218	-0.010914873	0.08884892	0.2674975	0.03266934	0.11809454	-0.09243975	-0.085648894	-0.17696883	0.113432474	-0.19621237	-0.27521402	0.18710724	0.0876356	-0.039244138	-0.054387446	0.27917513	0.2421945	-0.032672394	0.21917221	0.41216823	0.45984745	0.21349348	-0.09090487	-0.072306536	-0.29449436	0.09148876	0.032458693	0.34256196	-0.034770496	0.088044666	0.00743657	-0.103419594	-0.29236093	-0.055348456	0.0014252311	-0.20280924	0.126602	-0.20436898	-0.1609751	-0.28612757	0.19012699	-0.010569255	-0.19289933	-0.09053992	-0.028648999	0.16951156	-0.020330284	0.04992007	0.16817285	-0.16788779	0.110076696	-0.048207972	-0.15467323	-0.074592344	0.109161675	-0.15287443	-0.13472694	-0.12339974	0.18214802	-0.024955668	0.19662948	-0.084145576	0.044890806	-0.26079667	-0.09194667	-0.023583803	-0.08804009	-0.1760643	-0.061864156	-0.054523	0.053232845	-0.24764003	-0.027473448	-0.017142888	-0.12515572	-0.010688683	-0.19766884	-0.14781131	-0.03944836	-0.26718095	-0.018685019	-0.045265056	-0.21227013	-0.18782151	-0.20466502	0.13242942	-0.020424854	-0.079785585	0.1934051	0.1354627	-0.036007214	0.13040982	0.09402744	0.059857477	0.13874836	0.1176209	0.064279445	0.06377025	0.2096082	0.23171231	0.07763646	-0.058501255	-0.20989233	0.111973174	0.12325031	0.06272049	0.14982589	0.20760995	-0.11305892	0.1324805	0.24101748	-0.03581131	-0.00954502	0.1082423	-0.12279478	-0.037884384	-0.13294695	0.20718388	0.09404873	0.12985499	-0.08897123	0.053624965	-0.047241814	0.062035494	0.06501518	0.054599475	-0.2027377	-0.07419705	-0.011401475	-0.073670246	-0.14607383	-0.10103772	0.07145278	-0.074062526	-0.02215906	0.105204396	0.13958636	0.107833534	0.19727242	0.26057252	0.21065113	0.19320798	0.055327922	0.09658778	-0.013070341	-0.037860684	0.17586923	-0.20756641	0.1913913	-0.30814862	0.0065598167	0.13200127	0.029553093	-0.124910854	-0.069882944	-0.028369298	0.07232638	-0.029762728	-0.111701615	0.08101984	0.083936796	-0.108130105	0.13601564	0.26338118	0.051929288	-0.24603932	0.1698481	0.2088301	0.31344575	0.10911667	0.015607308	0.21989217	0.1281918	0.18032514	-0.01802337	0.21119829	0.052181065	0.1827526	0.028666366	0.08912813	-0.020932633	0.16909671	0.2195181	-0.09337056	0.23529254	-0.09483752	0.009342	-0.21610652	-0.054538917	0.09232557	-0.13935806	-0.18447159	-0.17911921	-0.18534377	-0.070695385	0.003272248	0.14346355	0.076107115	0.23092933	-0.05220725	-0.16182144	-0.0071906983	-0.044613767	-0.26568332	-0.08601438	-0.13093188	0.49283692	0.58497745	0.18445481	0.1191108	-0.0063905497	-0.1818917	-0.122946836	-0.10311479	-0.07855261	0.02534032	-0.08849807	-0.10386414	-0.007763776	-0.006183842	-0.11527733	-0.014700099	0.0074791797	-0.17398912	-0.08481058	-0.22093438	-0.0024004844	-0.019767245	-0.11991011	0.07168889	-0.0058018113	-0.14357679	-0.004739069	-0.22291835	-0.114225626	0.49142995	0.3146453	0.0023745187	0.11915024	0.063654765	-0.059074745	-0.046917845	0.17184807	0.05404375	0.18302177	0.042007435	0.19011244	0.1266486	-0.16258894	-0.13596584	-0.25807977	0.22267164	0.013889526	0.16178684	-0.110292435	0.014909883	0.0020779641	-0.3621552	-0.20781383	0.11704482	0.024808208	-0.010109383	0.07433739	-0.008342219	-0.17594188	-0.20939669	-0.06484743	-0.05342356	-0.109835945	0.23084792	-0.2978126	-0.31565404	-0.111264	-0.28767964	-0.08407878	0.34314805	0.25573808	0.12293341	-0.03343214	0.087925024	0.1587989	0.044217203	0.110022575	0.01847594	-0.054416083	-0.28443557	-0.23230451	-0.18658769	-0.21408154	-0.027001172	0.0031531495	-0.172918	0.16866343	-0.087613516	0.028464682	0.00036591274	0.19323257	0.19611757	0.13618815	0.08217668	-0.104504585	-0.21044141	-0.22065197	0.21399395	-0.1981983	-0.11787399	0.110017546	-0.039176434	0.070170276	0.1683226	0.22135249	0.15280446	-0.17381217	0.6162597	0.6572437	0.67492414	0.03951235	-0.04946961	-0.22223201	-0.261689	0.017812023	-0.0054612216	0.14019546	0.15777443	0.17628191	0.19830237	-0.123674735	-0.24120818	-0.17838758	-0.19683734	-0.15625428	0.074049525	-0.03072517	-0.25164008	-0.20217893	0.059744343	0.14229852	-0.15767078	-0.032867983	0.023748495	0.14348006	-0.066112205	0.22139299	0.48817402	-0.011716636	0.03605475	0.1042371	-0.24247608	-0.1676326	0.09648916	-0.039702322	-0.019573472	-0.11062082	0.32959554	0.025760224	0.11203211	0.07140512	-0.037426207	-0.09337479	0.14038284	0.12289097	0.08702828	-0.019796241	-0.001435715	0.13853195	0.017825192	0.02526788	0.044847846	-0.15506008	-0.070830815	0.123495854	0.012865221	0.17524603	0.052377056	0.065019876	0.14698736	0.23670284	0.107227474	0.13819931	-0.001625573	0.14688027	0.3492506	0.2752428	-0.069184296	-0.02286691	0.026790598	-0.013213086	-0.032669872	0.031139683	0.14013176	0.3619663	0.1297551	0.13659175	0.10249733	0.03045304	0.18298835	0.030016918	0.1499639	0.100151934	0.06104696	-0.19762132	0.09186508	-0.013021415	-0.29841566	-0.011250553	0.13248324	-0.03231543	0.20108664	0.24448557	0.21317694	-0.20635541	-0.2798052	-0.087878026	-0.08121022	-0.21957758	0.054992076	-0.28908312	-0.28246957	-0.14594163	-0.30280623	-0.26011834	-0.048169002	0.15303807	0.018621849	-0.14775418	-0.1662287	-0.009671534	-0.03848993	0.014028594	-0.11699772	0.045668792	-0.20556918	-0.28942043	-0.2765059	-0.32110676	-0.18557741	-0.18547735	0.031501573	0.05593298	-0.2085316	0.035700798	-0.14958738	0.09526165	-0.00054109644	-0.05461535	0.25068069	0.05679577	-0.0007105438	-0.06184006	-0.02291706	-0.328808	0.08693925	-0.0036499677	-0.13208689	0.36356938	0.02389059	0.25643668	-0.15141508	-0.15440957	0.41125962	0.49794212	0.34325802	-0.024474965	-0.1798962	-0.2750364	-0.13372055	-0.20394492	-0.24690348	0.19165827	0.04816703	-0.2202428	-0.12964584	-0.23723532	-0.31003222	-0.4495999	-0.41162893	-0.2347215	-0.2213387	0.04767809	0.023288518	-0.034483667	0.049787622	-0.03159307	0.02098195	0.071558	0.26436833	0.39890152	-0.11352617	0.10739984	0.26204383	-0.0927246	-0.202978	0.15768112	0.13040958	0.060167696	0.042926118	-0.05127248	0.008835484	-0.05351524	0.23493586	0.14866273	-0.19508398	-0.05349433	-0.16545537	-0.04612332	-0.23494677	-0.10473307	0.14666782	-0.057260703	-0.05728623	-0.11049967	-0.06523283	-0.1620616	-0.102920495	-0.2472517	-0.08814556	-0.14082475	-0.05272975	-0.07460579	-0.11663432	0.024614444	-0.16471195	-0.22179559	-0.08055766	-0.33255923	-0.22796719	0.530609	0.1255634	0.074425586	-0.06193514	0.020989021	0.039521895	0.10497612	0.11138587	-0.009193109	0.13977772	-0.019271234	0.28239927	0.06995766	-0.25835654	-0.18448342	-0.10842193	0.12372119	-0.104103506	0.22040255	-0.03945405	-0.019286005	-0.12927453	-0.21256596	-0.1914328	0.1353128	0.037557952	-0.093294434	0.04200185	-0.13599391	-0.073806345	-0.012621212	-0.10744722	0.023887657	-0.052825756	0.2678934	-0.25572202	-0.1519221	-0.09464627	-0.28410396	-0.111548394	0.29070288	0.20047121	0.092007026	0.09820767	0.009370742	0.06806522	0.1351224	0.19939257	0.22394954	-0.116576366	-0.12564157	-0.046732027	-0.018612944	-0.1031897	0.18869649	0.1373705	-0.070083804	0.18608813	0.044231296	0.16672176	0.11987409	0.026539013	0.10364455	0.15394466	-0.017398292	-0.027040282	-0.36793366	-0.16355537	0.14334631	-0.1094107	-0.16763763	-0.16132651	-0.14065109	-0.032816403	0.19762638	0.173647	-0.035203874	-0.35082516	0.63528883	0.38286358	0.47950006	0.18884954	-0.19991244	0.008023235	-0.08556058	0.15149814	-0.05806658	0.15462925	0.14717284	0.16687608	0.069225244	0.009853423	-0.20959494	-0.17312375	-0.13397045	-0.27934185	-0.011150022	-0.072962254	-0.24620208	-0.25008395	-0.11262139	-0.05821577	-0.13686159	-0.1904272	-0.12754971	0.14768039	-0.07534149	-0.01718006	0.3820084	0.03750619	-0.008904729	-0.029771674	-0.23180115	0.05530593	-0.048457462	-0.023763979	-0.22171319	-0.1538391	-0.09814496	-0.042225268	-0.08634076	-0.015161567	-0.24006578	-0.13041316	-0.10166507	0.10251176	-0.085593164	-0.015697718	-0.27969426	-0.13814493	-0.017004719	-0.16185969	-0.21031998	-0.13274713	-0.24619783	-0.037836164	-0.02876486	-0.07799007	0.061585404	-0.05780899	-0.09982412	-0.08926789	-0.044288285	-0.26910663	0.0055670287	-0.103100516	0.28968918	-0.16163321	-0.12407715	-0.06753147	-0.093181156	-0.20137888	-0.19847433	-0.135059	-0.045545172	0.16937107	-0.14078934	-0.1706902	-0.018556986	-0.087154076	0.12367478	-0.056278825	-0.0782609	0.26147062	-0.07350844	0.26628113	0.08053853	0.00076174055	-0.09800564	-0.20832032	-0.10961124	-0.09599098	-0.109968044	0.094055764	0.017857248	0.23207499	-0.23786527	0.11128107	-0.13801338	0.121997	-0.07315206	-0.16603817	-0.03041144	-0.01192426	0.013256752	0.40179035	0.36992693	-0.016584367	-0.25409004	0.049928088	0.221426	0.062198043	0.087683745	0.1612345	-0.07057199	-0.008693436	0.041758023	-0.11453476	0.04865293	0.0058899564	-0.20391887	-0.14736196	-0.11148429	0.13533174	-0.10330254	0.16537482	-0.06350401	-0.10780828	-0.09638887	0.12720363	-0.14392592	0.0073977644	0.029303147	-0.02036033	-0.1990775	-0.40915775	-0.17266962	0.018779162	0.21552543	0.08453996	-0.12555094	-0.2285363	0.20201775	0.08503545	-0.08637272	-0.18611152	-0.18877342	-0.058829322	-0.25370288	0.019189393	0.13247019	-0.14931372	0.19988908	-0.03932902	-0.1570043	-0.17997302	-0.2716785	-0.018860754	0.07927949	-0.30198714	-0.26771215	-0.048386022	-0.108128704	-0.27295747	-0.2901095	-0.18384248	-0.15964521	-0.095934376	-0.19862205	0.15055515	-0.20061593	-0.15030174	0.033061367	-0.075891905	0.037030395	-0.17042644	-0.20380984	0.102805324	0.008955917	0.31655687	0.17845924	0.18485565	-0.093327574	0.4385745	0.2126418	0.4443231	0.23669675	-0.0824327	0.56036234	0.604194	0.42135096	0.05897198	-0.23193243	-0.17900461	-0.09191194	-0.26036912	0.14729674	0.46794343	-0.11147734	-0.27077895	-0.31715834	-0.30509728	-0.24703267	-0.16235521	-0.13000159	-0.28239867	-0.27224898	-0.08216031	-0.2425981	-0.2461462	-0.23361418	-0.281797	-0.27816787	-0.31813022	-0.28667957	-0.16988103	-0.18744421	-0.121455185	-0.21195856	0.13757484	0.42989886	0.014997553	0.094604425	-0.07451289	0.12749204	0.20836948	0.15544881	-0.1549249	-0.28207383	0.20642884	-0.26203844	0.094495334	0.03132865	-0.11893704	0.06536868	-0.10405052	0.03371093	0.42994684	0.2609855	0.31290323	0.34151357	0.46156865	0.12376017	0.46693435	0.34667635	0.02900952	0.1563627	0.18131964	-0.1438584	-0.026376707	-0.031364318	0.042491306	0.16208513	0.040029213	0.1869313	0.46668145	0.07978685	0.3149607	0.3631984	0.28262013	0.4256458	0.45907393	0.36320484	0.47812602	0.49903855	0.49914092	0.41471827	0.3337141	0.0034897693	0.006124909	0.16929784	0.38801074	0.067396104	0.1678227	0.25905293	0.034020305	0.12936611	-0.06653742	-0.12127615	0.13880804	-0.060848817	-0.12340225	-0.18133882	-0.15943016	-0.1778402	0.07220163	0.11207703	0.0776377	0.32731143	-0.3105635	0.09196575	0.28135905	0.343504	-0.049889233	0.3482592	-0.32946464	0.03942446	-0.33606252	-0.23567274	-0.07069854	-0.00559629	-0.2351189	-0.41827542	-0.31222212	-0.48355845	0.041984223	0.18367553	-0.032910317	-0.48467764	-0.3329932	-0.32409653	-0.299302	-0.14076379	-0.44056198	-0.41563967	-0.30764902	-0.37281004	-0.24481085	-0.10586836	0.03670246	0.2011164	-0.20107388	-0.3794319	-0.15360285	-0.09171518	0.25138572	0.5942399	0.07458501	0.2620591	0.3286209	-0.43632257	-0.056818563	-0.100443326	0.5576711	0.54834485	0.6602364	0.42595226	0.5224351	0.39378273	-0.028688377	0.31446624	0.6439038	0.4708139	0.5845069	0.43339062	0.38174307	-0.050908163	0.4422348	-0.0071515706	0.00075524184	0.37784648	0.011762794	0.20599298	0.35488632	0.09762225	0.07959224	0.09257501	-0.11123233	-0.17854634	0.0077318694	0.10436913	0.0090078795	0.3460925	0.34095243	-0.00843607	0.07590776	0.3811062	-0.43545708	-0.293112	-0.22197339	-0.08055554	-0.18026923	-0.13878171	-0.28335723	-0.13801289	-0.08682999	-0.12136205	0.2632946	-0.20447512	-0.35604975	-0.025508719	-0.28082028	-0.3097507	-0.20426264	-0.21894154	-0.3161654	-0.31403038	0.060895264	-0.055618864	-0.014121844	-0.064093165	0.09626197	-0.0329622	-0.09338961	0.075204276	-0.07762548	0.045755062	-0.30532706	-0.14195564	-0.115107104	-0.26283067	-0.18680252	-0.08843318	-0.33843485	-0.39573947	-0.07184386	-0.22397693	-0.39492235	-0.20487513	-0.43269706	-0.07841996	-0.05548431	-0.1957484	-0.35997504	-0.17826168	0.10588625	-0.29949746	-0.22104184	-0.18150662	-0.12747829	-0.07331937	-0.35893923	-0.129295	-0.072326794	-0.27262965	-0.034407213	0.23254636	-0.169981	-0.109803215	-0.105686694	-0.20648502	0.54365647	-0.112305716	-0.112262554	-0.46055582	-0.18914393	-0.25030887	0.12472593	-0.0033368082	0.44770166	0.09796046	-0.061207287	-0.09111698	-0.19998442	0.33264238	-0.23164564	0.43440005	0.17923358	0.34505117	0.18974897	0.20865594	0.32526013	0.54640317	0.03371166	-0.06977136	0.067988366	0.12259486	0.10015791	-0.1120616	-0.38588998	0.35323995	0.21785577	-0.1580065	-0.0062519596	0.0006980549	-0.018492075	-0.07209605	0.64809585	0.39415887	0.381524	0.23062949	0.3812509	0.69603395	0.22890685	0.12811531	0.1680795	0.26134604	0.4288846	-0.019314203	-0.0056772027	0.26396018	-0.32072482	-0.099468194	-0.16658233	-0.25376114	-0.28577745	-0.13102776	-0.31715533	0.018604787	-0.39964685	-0.22600792	-0.2201529	-0.19734706	-0.17900208	-0.1881026	-0.35074398	-0.2039307	-0.080660835	-0.17663974	-0.3614845	-0.0349283	0.04873879	0.061153077	0.30903104	-0.15457296	0.0782188	-0.07828164	0.19484767	-0.014190109	0.15304127	-0.18382767	-0.21731882	0.16475737	-0.32618648	-0.112789586	-0.21925692	-0.2001927	-0.098106235	-0.20379604	-0.16346182	0.3536464	0.12851737	-0.02688367	0.1559863	0.05472932	0.1308511	0.4314081	0.037125893	0.0342853	0.067787774	-0.086602025	-0.021597808	0.07186297	-0.0061105145	-0.29616174	-0.0634935	0.079254895	0.21734723	0.3700472	-0.07027501	0.37014598	0.37257925	0.42683214	0.48393244	0.4016508	0.26549155	0.17914055	0.079344265	0.3674255	0.10160568	0.07289416	-0.1774682	-0.17062329	-0.12584554	-0.0589133	-0.17699632	-0.11394721	0.13191712	-0.2759131	0.20746441	-0.22580782	-0.3662578	0.03295542	-0.18209049	0.105301574	-0.31502146	-0.28085613	-0.07377733	0.025620554	-0.02767796	-0.12428624	0.047056958	0.16780922	0.5018951	0.4197721	0.33581156	0.12790552	0.18379511	-0.11230054	0.2546741	-0.12725787	0.22146305	0.16727522	0.32005563	0.0868219	-0.102171324	-0.19892396	-0.27652216	-0.03786549	0.100494295	-0.33870506	-0.47045934	-0.11593593	-0.27512756	-0.3238746	-0.28655455	-0.35883623	-0.4326308	-0.37211084	-0.3994108	-0.19836539	-0.28353179	-0.007163049	0.23055583	-0.38939923	-0.14141999	-0.1252793	-0.06918462	0.205814	0.2510641	0.3010103	0.02070474	0.4355439	-0.037479278	0.41007382	0.33494058	0.4772522	0.47455275	0.2178985	0.27118173	0.20884725	-0.058269396	0.20846981	0.10278587	0.10357527	-0.041085772	0.21070945	-0.26165044	0.19381583	-0.39826256	-0.28176948	-0.014978539	-0.17356436	-0.075806215	0.054639142	-0.15914473	-0.13722774	-0.033727407	-0.2509304	-0.3148481	-0.032935686	0.040222146	-0.04573499	0.5330024	0.118602045	0.27831545	0.0031603063	0.3749808	-0.13908729	0.05881839	-0.34288988	-0.139081	0.11041931	-0.27887198	-0.20318352	-0.07918026	-0.23844983	-0.11477008	-0.031849332	-0.06515418	0.048176493	0.19008319	-0.1737687	0.0359917	-0.20781656	0.09529962	0.057904046	-0.22191596	0.00093568885	0.04214264	-0.08564663	-0.03483825	0.14704603	-0.08667811	-0.24443263	-0.038681373	-0.0037185906	0.08945973	0.10873131	-0.005458461	0.38764894	0.2741197	0.37145668	0.35203463	0.034644727	-0.041853897	0.049819987	-0.20170207	0.112575345	-0.13459307	-0.026288666	-0.2703069	-0.07424617	-0.10157314	-0.24677557	-0.092505544	-0.032217458	-0.0063496465	-0.21844766	0.12425942	-0.26072782	-0.26439235	-0.042211007	-0.18537511	0.10546263	-0.27828163	-0.2763508	-0.0065670637	-0.07618281	-0.16536471	-0.14012162	0.041308463	0.43047908	0.35207966	0.24933968	0.08708206	0.10134427	0.021513568	-0.05137271	0.19668894	0.15125987	0.21877907	0.05067172	0.33063224	0.118230686	0.1046084	-0.13134393	-0.0028210096	0.22621016	0.31187445	-0.1809262	-0.14522699	0.027635474	0.045046065	-0.29786345	-0.32066518	-0.23806211	-0.24495798	-0.24466126	-0.30503047	-0.12567987	0.004801584	0.17322299	0.16550419	-0.17932327	-0.06234792	0.053774033	0.08386492	0.3717807	0.16722426	0.22844805	0.4905527	0.46289834	0.027587457	0.12187437	0.102947116	-0.06672879	0.1401071	0.20417143	0.76380587	-0.063574456	-0.22839457	0.06605421	-0.2983085	-0.0805538	0.25114334	-0.3096877	-0.047601778	0.03433827	-0.18878646	-0.19634806	-0.28081834	-0.1948479	-0.11480384	-0.22885671	-0.13729665	0.009855228	0.20485346	0.056215294	-0.18064639	-0.18912497	0.2269395	0.48323813	-0.07972446	0.09844521	-0.16643196	0.1638634	-0.04933539	0.007652157	-0.0884087	-0.17903066	0.110761024	-0.11266509	-0.08150264	-0.16302891	-0.07575844	0.061032172	-0.08522878	-0.1763084	0.020101842	-0.09547611	0.04492567	-0.06734263	0.10957776	-0.055215474	0.24641094	0.30927917	-0.054753486	-0.004708902	-0.10073413	-0.36025053	-0.31661388	-0.3315045	-0.34998468	-0.33420837	-0.3579898	-0.12231993	0.07179123	-0.047182664	0.15902941	0.14126028	0.04620291	0.2010694	0.039242078	0.009378859	0.7100512	0.33778375	0.27432656	0.099307135	0.09914997	-0.24689165	-0.3409512	-0.14265959	0.37015378	0.02827039	0.15352271	0.42998943	-0.013235594	-0.00078247726	0.3353996	0.017695056	0.09017863	0.34492892	0.019115128	-0.10318373	-0.3808109	-0.13379967	-0.0046755215	-0.012735912	-0.10337283	0.11560647	-0.17345367	0.04691454	0.6334022	0.051353056	-0.15000276	0.3282871	-0.22494113	-0.23510967	-0.23940101	-0.009624335	0.22112487	-0.087960206	-0.3624442	-0.19281268	-0.032972254	-0.09718316	0.06187591	0.47485587	-0.05496967	-0.29536352	0.07210703	-0.19594495	0.17085382	0.08621526	-0.2484993	-0.24695049	-0.2644486	-0.07626656	-0.13903347	0.04173194	0.106293336	0.1953915	-0.28841442	-0.2433483	-0.19888848	-0.1633998	0.20064819	0.104477435	0.3220865	0.36371687	0.1698959	0.08584629	0.35660246	0.40060344	0.3370569	0.15393126	0.20098847	0.14388727	-0.045428887	-0.017427059	-0.11157969	0.09669044	0.0903225	0.08188429	0.06630065	-0.024090104	-0.32870775	-0.23426792	-0.30168158	-0.31680214	-0.3909862	-0.25934505	-0.38136998	-0.09244374	-0.31427318	-0.29915762	0.3435842	-0.13925864	0.31820968	